R.Time (min),Intensity,MW_PEG,normalized RI
10.0,-20,215104.0646703107,0.0
10.00833,-20,213811.39161429874,0.0
10.01667,-19,212526.8554879161,0.00019833399444664816
10.025,-19,211253.45362873172,0.00019833399444664816
10.03333,-19,209989.55782737478,0.00019833399444664816
10.04167,-18,208733.58632096724,0.0003966679888932963
10.05,-18,207488.4702999558,0.0003966679888932963
10.05833,-17,206252.61827911262,0.0005950019833399445
10.06667,-16,205024.48403279297,0.0007933359777865926
10.075,-16,203806.93427602947,0.0007933359777865926
10.08333,-15,202598.41329974856,0.0009916699722332407
10.09167,-14,201397.4095011999,0.001190003966679889
10.1,-14,200206.72674483762,0.001190003966679889
10.10833,-13,199024.8441768967,0.001388337961126537
10.11667,-13,197850.2839292809,0.001388337961126537
10.125,-13,196685.7885952639,0.001388337961126537
10.13333,-12,195529.87128183563,0.0015866719555731853
10.14167,-12,194381.08699260492,0.0015866719555731853
10.15,-11,193242.118585009,0.0017850059500198333
10.15833,-11,192111.512257714,0.0017850059500198333
10.16667,-10,190987.85504758908,0.0019833399444664813
10.175,-10,189873.77156886578,0.0019833399444664813
10.18333,-9,188767.8402674918,0.00218167393891313
10.19167,-9,187668.67939890173,0.00218167393891313
10.2,-9,186578.8567853254,0.00218167393891313
10.20833,-9,185496.98229952395,0.00218167393891313
10.21667,-8,184421.7046238155,0.002380007933359778
10.225,-8,183355.53619946394,0.002380007933359778
10.23333,-8,182297.11752876113,0.002380007933359778
10.24167,-7,181245.1269515303,0.002578341927806426
10.25,-6,180202.02290015042,0.002776675922253074
10.25833,-6,179166.47573162735,0.002776675922253074
10.26667,-6,178137.1926955345,0.002776675922253074
10.275,-5,177116.57954966248,0.0029750099166997225
10.28333,-5,176103.33575269562,0.0029750099166997225
10.29167,-5,175096.19673715718,0.0029750099166997225
10.3,-4,174097.5168839002,0.0031733439111463705
10.30833,-4,173106.024021359,0.0031733439111463705
10.31667,-3,172120.48105853164,0.0033716779055930186
10.325,-3,171143.19226142403,0.0033716779055930186
10.33333,-2,170172.9131167664,0.0035700119000396666
10.34167,-1,169208.43332324753,0.003768345894486315
10.35,-1,168252.00825963277,0.003768345894486315
10.35833,-1,167302.42037933494,0.003768345894486315
10.36667,-1,166358.48550304843,0.003768345894486315
10.375,0,165422.41131644408,0.003966679888932963
10.38333,-1,164493.00656724154,0.003768345894486315
10.39167,-1,163569.11254897522,0.003768345894486315
10.4,0,162652.89041590362,0.003966679888932963
10.40833,0,161743.1745563294,0.003966679888932963
10.41667,1,160838.83110542232,0.004165013883379611
10.425,0,159941.97581620736,0.003966679888932963
10.43333,1,159051.46808193918,0.004165013883379611
10.44167,2,158166.198265633,0.00436334787782626
10.45,2,157288.23781868728,0.00436334787782626
10.45833,3,156416.4705212219,0.004561681872272907
10.46667,3,155549.810367199,0.004561681872272907
10.475,3,154690.28557633504,0.004561681872272907
10.48333,3,153836.80371454032,0.004561681872272907
10.49167,4,152988.3018262094,0.004760015866719556
10.5,4,152146.7659405273,0.004760015866719556
10.50833,4,151311.12682462612,0.004760015866719556
10.51667,4,150480.3440087081,0.004760015866719556
10.525,4,149656.3623446338,0.004760015866719556
10.53333,4,148838.1352321955,0.004760015866719556
10.54167,5,148024.64413819686,0.004958349861166204
10.55,5,147217.79372325484,0.004958349861166204
10.55833,5,146416.55946678712,0.004958349861166204
10.56667,4,145619.9442379521,0.004760015866719556
10.575,5,144829.81346586993,0.004958349861166204
10.58333,5,144045.16417161844,0.004958349861166204
10.59167,5,143265.02010697123,0.004958349861166204
10.6,6,142491.20840373833,0.005156683855612852
10.60833,5,141722.74710130613,0.004958349861166204
10.61667,5,140958.68032840863,0.004958349861166204
10.625,6,140200.79782890857,0.005156683855612852
10.63333,6,139448.13815133725,0.005156683855612852
10.64167,6,138699.76530939358,0.005156683855612852
10.65,6,137957.43254426398,0.005156683855612852
10.65833,6,137220.19841821838,0.005156683855612852
10.66667,6,136487.14635118627,0.005156683855612852
10.675,6,135759.99394354798,0.005156683855612852
10.68333,6,135037.8192892623,0.005156683855612852
10.69167,6,134319.7247486276,0.005156683855612852
10.7,5,133607.39312036053,0.004958349861166204
10.70833,6,132899.92156102502,0.005156683855612852
10.71667,6,132196.4309179101,0.005156683855612852
10.725,5,131498.570005153,0.004958349861166204
10.73333,5,130805.4545854131,0.004958349861166204
10.74167,5,130116.22355172156,0.004958349861166204
10.75,5,129432.49252927984,0.004958349861166204
10.75833,5,128753.39544255254,0.004958349861166204
10.76667,5,128078.08880082727,0.004958349861166204
10.775,4,127408.15581520351,0.004760015866719556
10.78333,5,126742.74813950773,0.004958349861166204
10.79167,5,126081.03948122688,0.004958349861166204
10.8,6,125424.58139197064,0.005156683855612852
10.80833,6,124772.54283399445,0.005156683855612852
10.81667,5,124124.1143060176,0.004958349861166204
10.825,5,123480.81643513126,0.004958349861166204
10.83333,6,122841.8350822552,0.005156683855612852
10.84167,5,122206.37714114811,0.004958349861166204
10.85,5,121575.93303026847,0.004958349861166204
10.85833,7,120949.70511028884,0.0053550178500595
10.86667,6,120326.91628426539,0.005156683855612852
10.875,6,119709.02745937437,0.005156683855612852
10.88333,6,119095.25710765921,0.005156683855612852
10.89167,5,118484.84376589058,0.004958349861166204
10.9,5,117879.21950929804,0.004958349861166204
10.90833,4,117277.61854314222,0.004760015866719556
10.91667,4,116679.29467218558,0.004760015866719556
10.925,4,116085.65180154517,0.004760015866719556
10.93333,4,115495.93950147791,0.004760015866719556
10.94167,3,114909.42648859369,0.004561681872272907
10.95,3,114327.48914272265,0.004561681872272907
10.95833,4,113749.3920405421,0.004760015866719556
10.96667,4,113174.41846367001,0.004760015866719556
10.975,4,112603.91789494411,0.004760015866719556
10.98333,4,112037.16956825957,0.004760015866719556
10.99167,5,111473.47099243531,0.004958349861166204
11.0,4,110914.14536554983,0.004760015866719556
11.00833,5,110358.48623861081,0.004958349861166204
11.01667,4,109805.80501861258,0.004760015866719556
11.025,4,109257.3992154928,0.004760015866719556
11.03333,5,108712.57636610887,0.004958349861166204
11.04167,5,108170.66145513025,0.004958349861166204
11.05,5,107632.92688579546,0.004958349861166204
11.05833,5,107098.69385813888,0.004958349861166204
11.06667,4,106567.30062228949,0.004760015866719556
11.075,4,106039.99504147682,0.004760015866719556
11.08333,5,105516.11166458068,0.004958349861166204
11.09167,4,104995.0017030272,0.004760015866719556
11.1,5,104477.88903238242,0.004958349861166204
11.10833,5,103964.12124414911,0.004958349861166204
11.11667,4,103453.06221470874,0.004760015866719556
11.125,4,102945.91237036794,0.004760015866719556
11.13333,5,102442.03204690831,0.004958349861166204
11.14167,4,101940.79749692389,0.004760015866719556
11.15,4,101443.38622230983,0.004760015866719556
11.15833,4,100949.17101243665,0.004760015866719556
11.16667,4,100457.54021475703,0.004760015866719556
11.175,4,99969.6489184205,0.004760015866719556
11.18333,4,99484.88208313577,0.004760015866719556
11.19167,5,99002.63987703953,0.004958349861166204
11.2,5,98524.05547538251,0.004958349861166204
11.20833,4,98048.52573219253,0.004760015866719556
11.21667,4,97575.46236909328,0.004760015866719556
11.225,4,97105.9771338193,0.004760015866719556
11.23333,4,96639.47850572465,0.004760015866719556
11.24167,5,96175.38949950607,0.004958349861166204
11.25,5,95714.80090964134,0.004958349861166204
11.25833,5,95257.13257864997,0.004958349861166204
11.26667,5,94801.81856048015,0.004958349861166204
11.275,5,94349.9291588226,0.004958349861166204
11.28333,5,93900.89532384084,0.004958349861166204
11.29167,5,93454.16190132324,0.004958349861166204
11.3,6,93010.77915517584,0.005156683855612852
11.30833,5,92570.18889413883,0.004958349861166204
11.31667,5,92131.84651466201,0.004958349861166204
11.325,4,91696.78268071312,0.004760015866719556
11.33333,5,91264.44981681791,0.004958349861166204
11.34167,5,90834.31363496692,0.004958349861166204
11.35,5,90407.38562818499,0.004958349861166204
11.35833,5,89983.12860009498,0.004958349861166204
11.36667,5,89561.01834899923,0.004958349861166204
11.375,5,89142.04761541712,0.004958349861166204
11.38333,5,88725.68935131228,0.004958349861166204
11.39167,6,88311.4292178004,0.005156683855612852
11.4,6,87900.24161106108,0.005156683855612852
11.40833,5,87491.60940641392,0.004958349861166204
11.41667,6,87085.02790985725,0.005156683855612852
11.425,5,86681.45357140581,0.004958349861166204
11.43333,5,86280.37897035865,0.004958349861166204
11.44167,6,85881.30884508758,0.005156683855612852
11.45,5,85485.18208789226,0.004958349861166204
11.45833,6,85091.50076813021,0.005156683855612852
11.46667,6,84699.77884930803,0.005156683855612852
11.475,6,84310.93804499599,0.005156683855612852
11.48333,7,83924.48970600017,0.0053550178500595
11.49167,7,83539.95681884544,0.0053550178500595
11.5,8,83158.24428815313,0.005553351844506148
11.50833,8,82778.87254272608,0.005553351844506148
11.51667,7,82401.3733949814,0.0053550178500595
11.525,7,82026.6353014073,0.0053550178500595
11.53333,7,81654.18757037533,0.0053550178500595
11.54167,8,81283.57064791583,0.005553351844506148
11.55,7,80915.6568944803,0.0053550178500595
11.55833,8,80549.98430446295,0.005553351844506148
11.56667,8,80186.10176995178,0.005553351844506148
11.575,8,79824.86589896382,0.005553351844506148
11.58333,9,79465.82318312439,0.005751685838952796
11.59167,9,79108.53077761189,0.005751685838952796
11.6,8,78753.82987335046,0.005553351844506148
11.60833,8,78401.27527502745,0.005553351844506148
11.61667,8,78050.43222241214,0.005553351844506148
11.625,8,77702.12681663068,0.005553351844506148
11.63333,9,77355.92199576249,0.005751685838952796
11.64167,10,77011.39091001569,0.005950019833399445
11.65,11,76669.34489018226,0.0061483538278460925
11.65833,11,76329.35483243979,0.0061483538278460925
11.66667,11,75991.00162751379,0.0061483538278460925
11.675,10,75655.0821476999,0.005950019833399445
11.68333,10,75321.17507624107,0.005950019833399445
11.69167,10,74988.86887857481,0.005950019833399445
11.7,11,74658.94627291465,0.0061483538278460925
11.70833,10,74330.99356268044,0.005950019833399445
11.71667,10,74004.60662622377,0.005950019833399445
11.725,11,73680.55432486064,0.0061483538278460925
11.73333,11,73358.4304193336,0.0061483538278460925
11.74167,12,73037.83804301081,0.006346687822292741
11.75,11,72719.53249045463,0.0061483538278460925
11.75833,11,72403.1148208052,0.0061483538278460925
11.76667,11,72088.19526834432,0.0061483538278460925
11.775,12,71775.51584417016,0.006346687822292741
11.78333,12,71464.68475071555,0.006346687822292741
11.79167,12,71155.31917276839,0.006346687822292741
11.8,12,70848.14811457672,0.006346687822292741
11.80833,12,70542.78677048198,0.006346687822292741
11.81667,13,70238.85912896808,0.0065450218167393895
11.825,13,69937.08145754314,0.0065450218167393895
11.83333,12,69637.07579469602,0.006346687822292741
11.84167,12,69338.47278929906,0.006346687822292741
11.85,12,69041.9762358967,0.006346687822292741
11.85833,12,68747.21487289002,0.006346687822292741
11.86667,12,68453.82586964134,0.006346687822292741
11.875,13,68162.50080533956,0.0065450218167393895
11.88333,13,67872.87497749533,0.0065450218167393895
11.89167,12,67584.5919393834,0.006346687822292741
11.9,11,67298.33130643384,0.0061483538278460925
11.90833,12,67013.7347978086,0.006346687822292741
11.91667,11,66730.45221734975,0.0061483538278460925
11.925,12,66449.1514624709,0.006346687822292741
11.93333,11,66169.48053978145,0.0061483538278460925
11.94167,11,65891.09537349334,0.0061483538278460925
11.95,12,65614.65238304318,0.006346687822292741
11.95833,11,65339.805731453016,0.0061483538278460925
11.96667,12,65066.21733617468,0.006346687822292741
11.975,11,64794.53237314793,0.0061483538278460925
11.98333,10,64524.41103386088,0.005950019833399445
11.99167,10,64255.521104860025,0.005950019833399445
12.0,11,63988.49674765476,0.0061483538278460925
12.00833,10,63723.00405725893,0.005950019833399445
12.01667,10,63458.71656807682,0.005950019833399445
12.025,10,63196.25765097684,0.005950019833399445
12.03333,10,62935.29918248616,0.005950019833399445
12.04167,10,62675.52032646388,0.005950019833399445
12.05,11,62417.53388178392,0.0061483538278460925
12.05833,11,62161.01738732741,0.0061483538278460925
12.06667,11,61905.65552076464,0.0061483538278460925
12.075,11,61652.05072261128,0.0061483538278460925
12.08333,11,61399.88607772019,0.0061483538278460925
12.09167,11,61148.85166461816,0.0061483538278460925
12.1,12,60899.53977421448,0.006346687822292741
12.10833,12,60651.638923659,0.006346687822292741
12.11667,11,60404.84448199885,0.0061483538278460925
12.125,12,60159.73879452829,0.006346687822292741
12.13333,12,59916.01569965669,0.006346687822292741
12.14167,13,59673.375749167586,0.0065450218167393895
12.15,12,59432.39154209199,0.006346687822292741
12.15833,12,59192.76212963039,0.006346687822292741
12.16667,11,58954.19314100404,0.0061483538278460925
12.175,12,58717.24762380949,0.006346687822292741
12.18333,11,58481.6297360738,0.0061483538278460925
12.19167,11,58247.050081580426,0.0061483538278460925
12.2,10,58014.06234691209,0.005950019833399445
12.20833,10,57782.37569339491,0.005950019833399445
12.21667,10,57551.70559886141,0.005950019833399445
12.225,10,57322.59657500092,0.005950019833399445
12.23333,10,57094.76268529064,0.005950019833399445
12.24167,10,56867.92418339828,0.005950019833399445
12.25,10,56642.616588050216,0.005950019833399445
12.25833,10,56418.55876604193,0.005950019833399445
12.26667,9,56195.4756509051,0.005751685838952796
12.275,10,55973.893946248514,0.005950019833399445
12.28333,10,55753.53722561013,0.005950019833399445
12.29167,10,55534.13500860033,0.005950019833399445
12.3,10,55316.205357570325,0.005950019833399445
12.30833,10,55099.47645842612,0.005950019833399445
12.31667,10,54883.68232520126,0.005950019833399445
12.325,9,54669.33254896523,0.005751685838952796
12.33333,9,54456.15983576093,0.005751685838952796
12.34167,9,54243.90260446743,0.005751685838952796
12.35,8,54033.0621410582,0.005553351844506148
12.35833,8,53823.375581574,0.005553351844506148
12.36667,9,53614.585662184225,0.005751685838952796
12.375,8,53407.18552625864,0.005553351844506148
12.38333,8,53200.91665173428,0.005553351844506148
12.39167,7,52995.526006489614,0.0053550178500595
12.4,8,52791.49875017919,0.005553351844506148
12.40833,8,52588.58061652072,0.005553351844506148
12.41667,7,52386.52272144498,0.0053550178500595
12.425,7,52185.80239626555,0.0053550178500595
12.43333,8,51986.169546301404,0.005553351844506148
12.44167,8,51787.37935375517,0.005553351844506148
12.45,8,51589.90147354431,0.005553351844506148
12.45833,8,51393.4899002998,0.005553351844506148
12.46667,7,51197.903802543966,0.0053550178500595
12.475,7,51003.60530739953,0.0053550178500595
12.48333,8,50810.35241836064,0.005553351844506148
12.49167,7,50617.90821210152,0.0053550178500595
12.5,8,50426.72743328858,0.005553351844506148
12.50833,7,50236.57201562642,0.0053550178500595
12.51667,7,50047.20886751192,0.0053550178500595
12.525,8,49859.08549331173,0.005553351844506148
12.53333,7,49671.96768003905,0.0053550178500595
12.54167,7,49485.62609308039,0.0053550178500595
12.55,8,49300.50113555434,0.005553351844506148
12.55833,8,49116.36237258789,0.005553351844506148
12.56667,7,48932.98415347904,0.0053550178500595
12.575,7,48750.799916119904,0.0053550178500595
12.58333,6,48569.582930222416,0.005156683855612852
12.59167,6,48389.11115753143,0.005156683855612852
12.6,6,48209.81120377861,0.005156683855612852
12.60833,6,48031.4599713549,0.005156683855612852
12.61667,6,47853.838964562514,0.005156683855612852
12.625,6,47677.36808715266,0.005156683855612852
12.63333,6,47501.82780387635,0.005156683855612852
12.64167,6,47327.00309323652,0.005156683855612852
12.65,6,47153.30728437103,0.005156683855612852
12.65833,6,46980.52433561554,0.005156683855612852
12.66667,6,46808.44263281584,0.005156683855612852
12.675,6,46637.46905511639,0.005156683855612852
12.68333,5,46467.390987169536,0.004958349861166204
12.69167,5,46298.000156767885,0.004958349861166204
12.7,5,46129.69711500037,0.004958349861166204
12.70833,5,45962.27260704015,0.004958349861166204
12.71667,5,45795.52163865525,0.004958349861166204
12.725,4,45629.83855220089,0.004760015866719556
12.73333,5,45465.01738900893,0.004958349861166204
12.74167,4,45300.85637024355,0.004760015866719556
12.75,4,45137.74374629301,0.004760015866719556
12.75833,5,44975.47679168701,0.004958349861166204
12.76667,4,44813.85688176211,0.004760015866719556
12.775,5,44653.26628921542,0.004958349861166204
12.78333,4,44493.50546017815,0.004760015866719556
12.79167,4,44334.37886426094,0.004760015866719556
12.8,4,44176.26290831035,0.004760015866719556
12.80833,5,44018.96114979669,0.004958349861166204
12.81667,5,43862.281093998776,0.004958349861166204
12.825,4,43706.59339137706,0.004760015866719556
12.83333,5,43551.70465177975,0.004958349861166204
12.84167,5,43397.42535880839,0.004958349861166204
12.85,5,43244.12051368381,0.004958349861166204
12.85833,4,43091.599720939375,0.004760015866719556
12.86667,4,42939.676386385254,0.004760015866719556
12.875,3,42788.70996688293,0.004561681872272907
12.88333,4,42638.51300519881,0.004760015866719556
12.89167,3,42488.90177443851,0.004561681872272907
12.9,3,42340.23028977443,0.004561681872272907
12.90833,2,42192.31397696125,0.00436334787782626
12.91667,3,42044.971922660334,0.004561681872272907
12.925,3,41898.552800865844,0.004561681872272907
12.93333,2,41752.87486625727,0.00436334787782626
12.94167,2,41607.759966455946,0.00436334787782626
12.95,3,41463.5515326809,0.004561681872272907
12.95833,3,41320.07059562431,0.004561681872272907
12.96667,3,41177.14171239001,0.004561681872272907
12.975,3,41035.10316776509,0.004561681872272907
12.98333,2,40893.77871666774,0.00436334787782626
12.99167,2,40752.99557529716,0.00436334787782626
13.0,2,40613.0869763414,0.00436334787782626
13.00833,2,40473.87934825591,0.00436334787782626
13.01667,2,40335.202517013124,0.00436334787782626
13.025,3,40197.384755571635,0.004561681872272907
13.03333,2,40060.25511630705,0.00436334787782626
13.04167,2,39923.64598668236,0.00436334787782626
13.05,1,39787.88077037797,0.004165013883379611
13.05833,1,39652.79109511962,0.004165013883379611
13.06667,1,39518.21186259375,0.004165013883379611
13.075,1,39384.46169578042,0.004165013883379611
13.08333,1,39251.374750206814,0.004165013883379611
13.09167,0,39118.788395506795,0.003966679888932963
13.1,0,38987.016560709206,0.003966679888932963
13.10833,-1,38855.89588259053,0.003768345894486315
13.11667,-1,38725.26615342622,0.003768345894486315
13.125,-1,38595.436693252166,0.003768345894486315
13.13333,-1,38466.246574519326,0.003768345894486315
13.14167,-1,38337.53796778144,0.003768345894486315
13.15,-2,38209.61566729608,0.0035700119000396666
13.15833,-1,38082.321136563805,0.003768345894486315
13.16667,-1,37955.498880977226,0.003768345894486315
13.175,-1,37829.44925052429,0.003768345894486315
13.18333,0,37704.01605605844,0.003966679888932963
13.19167,0,37579.04609527548,0.003966679888932963
13.2,1,37454.83535373315,0.004165013883379611
13.20833,0,37331.22994685037,0.003966679888932963
13.21667,0,37208.07892296982,0.003966679888932963
13.225,0,37085.673981431304,0.003966679888932963
13.23333,1,36963.86350031784,0.004165013883379611
13.24167,0,36842.498737822156,0.003966679888932963
13.25,0,36721.86718368752,0.003966679888932963
13.25833,-1,36601.8194376246,0.003768345894486315
13.26667,0,36482.20892772201,0.003966679888932963
13.275,-1,36363.31900919084,0.003768345894486315
13.28333,-1,36245.00246317997,0.003768345894486315
13.29167,-1,36127.11484853901,0.003768345894486315
13.3,-1,36009.93545949277,0.003768345894486315
13.30833,0,35893.31921926473,0.003966679888932963
13.31667,0,35777.12377913276,0.003966679888932963
13.325,-1,35661.624444396795,0.003768345894486315
13.33333,-1,35546.678241797425,0.003768345894486315
13.34167,-1,35432.14487749286,0.003768345894486315
13.35,-2,35318.295738466215,0.0035700119000396666
13.35833,-2,35204.98991720795,0.0035700119000396666
13.36667,-2,35092.08913797339,0.0035700119000396666
13.375,-2,34979.860938618935,0.0035700119000396666
13.38333,-1,34868.166440387715,0.003768345894486315
13.39167,-1,34756.86934959662,0.003768345894486315
13.4,-2,34646.23342277952,0.0035700119000396666
13.40833,-2,34536.12177368742,0.0035700119000396666
13.41667,-2,34426.40005539484,0.0035700119000396666
13.425,-1,34317.32830956129,0.003768345894486315
13.43333,-2,34208.771606936665,0.0035700119000396666
13.44167,-1,34100.59751276341,0.003768345894486315
13.45,-2,33993.06241894971,0.0035700119000396666
13.45833,-1,33886.033318453934,0.003768345894486315
13.46667,-1,33779.37965479575,0.003768345894486315
13.475,-2,33673.354233959435,0.0035700119000396666
13.48333,-2,33567.82593702445,0.0035700119000396666
13.49167,-1,33462.666052577646,0.003768345894486315
13.5,-1,33358.12386324161,0.003768345894486315
13.50833,-2,33254.07010481591,0.0035700119000396666
13.51667,-2,33150.37787841186,0.0035700119000396666
13.525,-1,33047.293004613995,0.003768345894486315
13.53333,-1,32944.68804121155,0.003768345894486315
13.54167,0,32842.43786994973,0.003966679888932963
13.55,0,32740.784909487913,0.003966679888932963
13.55833,-1,32639.603507531097,0.003768345894486315
13.56667,-1,32538.770295204446,0.003768345894486315
13.575,-1,32438.524348171995,0.003768345894486315
13.58333,-2,32338.741772620626,0.0035700119000396666
13.59167,-2,32239.3009184251,0.0035700119000396666
13.6,-1,32140.43757602569,0.003768345894486315
13.60833,-1,32042.029579285412,0.003768345894486315
13.61667,-1,31943.956966805305,0.003768345894486315
13.625,-1,31846.452300442976,0.003768345894486315
13.63333,0,31749.395111543112,0.003966679888932963
13.64167,-1,31652.66709800629,0.003768345894486315
13.65,-1,31556.497648641198,0.003768345894486315
13.65833,0,31460.76796267871,0.003966679888932963
13.66667,-1,31365.361368473816,0.003768345894486315
13.675,-1,31270.504136237054,0.003768345894486315
13.68333,0,31176.079104076267,0.003966679888932963
13.69167,0,31081.971202523993,0.003966679888932963
13.7,-1,30988.403636585783,0.003768345894486315
13.70833,-1,30895.260854808897,0.003768345894486315
13.71667,-1,30802.42936218304,0.003768345894486315
13.725,0,30710.12935086641,0.003966679888932963
13.73333,0,30618.24685196756,0.003966679888932963
13.74167,0,30526.669917757357,0.003966679888932963
13.75,1,30435.615778890904,0.004165013883379611
13.75833,0,30344.97202170819,0.003966679888932963
13.76667,1,30254.62821911608,0.004165013883379611
13.775,1,30164.798690620686,0.004165013883379611
13.78333,1,30075.37255099797,0.004165013883379611
13.79167,1,29986.24086766683,0.004165013883379611
13.8,1,29897.61509836871,0.004165013883379611
13.80833,1,29809.385860044244,0.004165013883379611
13.81667,1,29721.445689007804,0.004165013883379611
13.825,1,29634.00322967394,0.004165013883379611
13.83333,2,29546.95057538672,0.00436334787782626
13.84167,1,29460.181706238367,0.004165013883379611
13.85,1,29373.902500825378,0.004165013883379611
13.85833,2,29288.00650363602,0.00436334787782626
13.86667,2,29202.3891139083,0.00436334787782626
13.875,1,29117.253491022595,0.004165013883379611
13.88333,2,29032.4946058418,0.00436334787782626
13.89167,2,28948.009252593052,0.00436334787782626
13.9,1,28863.997917155575,0.004165013883379611
13.90833,2,28780.356972474932,0.00436334787782626
13.91667,2,28696.984584077465,0.00436334787782626
13.925,3,28614.07860918617,0.004561681872272907
13.93333,4,28531.53679900644,0.004760015866719556
13.94167,4,28449.258667128765,0.004760015866719556
13.95,4,28367.43948611612,0.004760015866719556
13.95833,4,28285.978362068337,0.004760015866719556
13.96667,4,28204.776133850944,0.004760015866719556
13.975,4,28124.025532529296,0.004760015866719556
13.98333,4,28043.6269961828,0.004760015866719556
13.99167,5,27963.482666596767,0.004958349861166204
14.0,4,27883.78277568985,0.004760015866719556
14.00833,5,27804.42907104177,0.004958349861166204
14.01667,5,27725.324975431166,0.004958349861166204
14.025,6,27646.6582631822,0.005156683855612852
14.03333,6,27568.331969326446,0.005156683855612852
14.04167,7,27490.250776125362,0.0053550178500595
14.05,7,27412.60004108226,0.0053550178500595
14.05833,8,27335.284065050626,0.005553351844506148
14.06667,8,27258.20876867319,0.005553351844506148
14.075,8,27181.557132642265,0.005553351844506148
14.08333,8,27105.23470241499,0.005553351844506148
14.09167,9,27029.148616312377,0.005751685838952796
14.1,9,26953.479517479183,0.005751685838952796
14.10833,8,26878.134175159255,0.005553351844506148
14.11667,9,26803.020925040313,0.005751685838952796
14.125,10,26728.318111251425,0.005950019833399445
14.13333,9,26653.933706400305,0.005751685838952796
14.14167,10,26579.77722361123,0.005950019833399445
14.15,11,26506.024745814677,0.0061483538278460925
14.15833,11,26432.58542894249,0.0061483538278460925
14.16667,10,26359.369944001777,0.005950019833399445
14.175,10,26286.552149839354,0.005950019833399445
14.18333,11,26214.042366049358,0.0061483538278460925
14.19167,11,26141.752402333306,0.0061483538278460925
14.2,11,26069.853929884062,0.0061483538278460925
14.20833,12,25998.25841266455,0.006346687822292741
14.21667,12,25926.87878024081,0.006346687822292741
14.225,13,25855.88455190965,0.0065450218167393895
14.23333,14,25785.18831707091,0.006743355811186037
14.24167,14,25714.704106675083,0.006743355811186037
14.25,14,25644.599323224593,0.006743355811186037
14.25833,15,25574.787662975283,0.006941689805632686
14.26667,14,25505.18424012819,0.006743355811186037
14.275,15,25435.954374847377,0.006941689805632686
14.28333,15,25367.01285201159,0.006941689805632686
14.29167,16,25298.275851272356,0.007140023800079333
14.3,17,25229.90664428231,0.007338357794525982
14.30833,16,25161.821086647233,0.007140023800079333
14.31667,17,25093.936406,0.007338357794525982
14.325,18,25026.413858690514,0.00753669178897263
14.33333,18,24959.170353487058,0.00753669178897263
14.34167,19,24892.12414885663,0.007735025783419278
14.35,20,24825.4345184511,0.007933359777865925
14.35833,20,24759.019406961295,0.007933359777865925
14.36667,21,24692.798086856295,0.008131693772312574
14.375,22,24626.9278811025,0.008330027766759222
14.38333,21,24561.327753390702,0.008131693772312574
14.39167,22,24495.917973669435,0.008330027766759222
14.4,23,24430.853945651972,0.00852836176120587
14.40833,23,24366.055635417626,0.00852836176120587
14.41667,23,24301.444294173805,0.00852836176120587
14.425,24,24237.173437246227,0.00872669575565252
14.43333,25,24173.16401679453,0.008925029750099168
14.44167,25,24109.33824936159,0.008925029750099168
14.45,26,24045.847792193603,0.009123363744545815
14.45833,27,23982.61456752177,0.009321697738992463
14.46667,27,23919.561741590234,0.009321697738992463
14.475,27,23856.83914332948,0.009321697738992463
14.48333,28,23794.369649324737,0.009520031733439112
14.49167,29,23732.07736017153,0.00971836572788576
14.5,30,23670.11030571513,0.009916699722332408
14.50833,31,23608.39230146258,0.010115033716779055
14.51667,32,23546.84836728961,0.010313367711225704
14.525,32,23485.62476266338,0.010313367711225704
14.53333,33,23424.6462268609,0.010511701705672352
14.54167,34,23363.83868423906,0.010710035700119
14.55,35,23303.34665208222,0.01090836969456565
14.55833,34,23243.095778559302,0.010710035700119
14.56667,35,23183.01287797654,0.01090836969456565
14.575,36,23123.24075312822,0.011106703689012296
14.58333,38,23063.705946466624,0.011503371677905593
14.59167,39,23004.336147976093,0.011701705672352241
14.6,38,22945.27247316315,0.011503371677905593
14.60833,40,22886.442344416733,0.01190003966679889
14.61667,41,22827.774313384885,0.012098373661245538
14.625,42,22769.407835006063,0.012296707655692185
14.63333,43,22711.27119751707,0.012495041650138834
14.64167,44,22653.293800466152,0.012693375644585482
14.65,45,22595.613464471546,0.01289170963903213
14.65833,46,22538.159329781814,0.013090043633478779
14.66667,47,22480.861630327083,0.013288377627925426
14.675,48,22423.85657819128,0.013486711622372074
14.68333,49,22367.07415204506,0.013685045616818723
14.69167,49,22310.445406923704,0.013685045616818723
14.7,51,22254.104971708675,0.01408171360571202
14.70833,52,22197.983650145765,0.014280047600158666
14.71667,53,22142.013305333734,0.014478381594605315
14.725,54,22086.327007840115,0.014676715589051963
14.73333,55,22030.856373376035,0.014875049583498612
14.74167,56,21975.53406029361,0.01507338357794526
14.75,57,21920.49160529914,0.015271717572391909
14.75833,59,21865.66142319147,0.015668385561285206
14.76667,60,21810.97695499239,0.01586671955573185
14.775,61,21756.568227573236,0.0160650535501785
14.78333,62,21702.368442171162,0.016263387544625148
14.79167,63,21648.311810115392,0.016461721539071796
14.8,64,21594.52687205052,0.016660055533518445
14.80833,64,21540.94760322567,0.016660055533518445
14.81667,66,21487.50897313287,0.01705672352241174
14.825,67,21434.338059388436,0.01725505751685839
14.83333,68,21381.36959904539,0.01745339151130504
14.84167,68,21328.539307827436,0.01745339151130504
14.85,71,21275.972823118907,0.01804839349464498
14.85833,72,21223.60563178373,0.01824672748909163
14.86667,73,21171.37418405402,0.018445061483538278
14.875,74,21119.4026994854,0.018643395477984926
14.88333,76,21067.627402968414,0.019040063466878223
14.89167,77,21015.985467726845,0.01923839746132487
14.9,79,20964.599717503286,0.01963506545021817
14.90833,80,20913.407103638227,0.019833399444664817
14.91667,82,20862.34551102883,0.02023006743355811
14.925,83,20811.53638924356,0.02042840142800476
14.93333,84,20760.917404696324,0.020626735422451407
14.94167,86,20710.42714283765,0.021023403411344704
14.95,87,20660.18570032822,0.021221737405791353
14.95833,88,20610.13144747797,0.021420071400238
14.96667,90,20560.203659362025,0.0218167393891313
14.975,92,20510.52110063728,0.022213407378024592
14.98333,92,20461.02283452491,0.022213407378024592
14.99167,94,20411.64881498576,0.02261007536691789
15.0,95,20362.516495219574,0.022808409361364537
15.00833,97,20313.565620564335,0.023205077350257834
15.01667,98,20264.73681331276,0.023403411344704483
15.025,101,20216.146235403936,0.023998413328044428
15.03333,102,20167.734303684672,0.024196747322491077
15.04167,104,20119.44229840764,0.02459341531138437
15.05,106,20071.385110104657,0.024990083300277667
15.05833,108,20023.503816706245,0.025386751289170964
15.06667,110,19975.740346230166,0.02578341927806426
15.075,111,19928.208337318832,0.02598175327251091
15.08333,113,19880.84951873986,0.026378421261404203
15.09167,115,19833.606456256155,0.0267750892502975
15.1,117,19786.591555808485,0.027171757239190797
15.10833,119,19739.74718693018,0.027568425228084094
15.11667,121,19693.016543281385,0.02796509321697739
15.125,122,19646.510816964463,0.02816342721142404
15.13333,124,19600.173008380087,0.028560095200317333
15.14167,125,19553.94692940429,0.02875842919476398
15.15,127,19507.942576848032,0.029155097183657278
15.15833,129,19462.10357224944,0.029551765172550575
15.16667,131,19416.374336183984,0.029948433161443872
15.175,132,19370.86368840646,0.03014676715589052
15.18333,134,19325.515862027652,0.030543435144783818
15.19167,136,19280.27587696768,0.03094010313367711
15.2,139,19235.251393855393,0.03153510511701706
15.20833,141,19190.38724797193,0.031931773105910354
15.21667,143,19145.629049385127,0.03232844109480365
15.225,146,19101.083317229008,0.03292344307814359
15.23333,148,19056.69547971128,0.03332011106703689
15.24167,150,19012.411728006333,0.033716779055930186
15.25,151,18968.33745708966,0.03391511305037683
15.25833,153,18924.41867900917,0.03431178103927013
15.26667,155,18880.602157156216,0.034708449028163425
15.275,158,18836.99217939643,0.035303451011503374
15.28333,159,18793.535332683827,0.03550178500595002
15.29167,161,18750.17894388646,0.035898452994843316
15.3,164,18707.026210526386,0.03649345497818326
15.30833,166,18664.02428567976,0.036890122967076555
15.31667,168,18621.12105109794,0.03728679095596985
15.325,171,18578.418630447686,0.0378817929393098
15.33333,173,18535.864734290197,0.03827846092820309
15.34167,176,18493.40779081098,0.03887346291154304
15.35,178,18451.148866037227,0.03927013090043634
15.35833,179,18409.036219523656,0.03946846489488298
15.36667,182,18367.018817580367,0.04006346687822293
15.375,184,18325.196684544575,0.04046013486711622
15.38333,187,18283.518620613744,0.04105513685045617
15.39167,190,18241.934122052182,0.04165013883379611
15.4,192,18200.542187194023,0.04204680682268941
15.40833,195,18159.29214866818,0.04264180880602935
15.41667,197,18118.134024658066,0.04303847679492265
15.425,199,18077.16580292449,0.043435144783815945
15.43333,201,18036.337340453014,0.04383181277270924
15.44167,204,17995.599169444013,0.044426814756049184
15.45,206,17955.048282262884,0.04482348274494248
15.45833,209,17914.635052310197,0.04541848472828243
15.46667,211,17874.3105180322,0.045815152717175726
15.475,215,17834.17069132839,0.04660848869496231
15.48333,217,17794.166454204547,0.04700515668385561
15.49167,220,17754.249343710137,0.04760015866719556
15.5,223,17714.514405964524,0.0481951606505355
15.50833,224,17674.91302389829,0.04839349464498215
15.51667,227,17635.39722564619,0.048988496628322095
15.525,229,17596.061105995745,0.04938516461721539
15.53333,232,17556.85654124768,0.049980166600555334
15.54167,235,17517.73604322813,0.05057516858389528
15.55,237,17478.7927696065,0.05097183657278857
15.55833,240,17439.979082622966,0.05156683855612852
15.56667,243,17401.247970522316,0.052161840539468464
15.575,246,17362.691667839215,0.052756842522808406
15.58333,248,17324.26301544474,0.0531535105117017
15.59167,251,17285.9154708485,0.05374851249504165
15.6,254,17247.740359208405,0.054343514478381594
15.60833,257,17209.69099283711,0.054938516461721536
15.61667,260,17171.72129147181,0.055533518445061485
15.625,263,17133.921684429508,0.05612852042840143
15.63333,266,17096.24594839323,0.056723522411741376
15.64167,270,17058.648458404536,0.05751685838952796
15.65,272,17021.218761258708,0.05791352637842126
15.65833,275,16983.911091051636,0.05850852836176121
15.66667,278,16946.680271319612,0.05910353034510115
15.675,280,16909.614979440514,0.05950019833399445
15.68333,283,16872.669900080262,0.06009520031733439
15.69167,287,16835.800298569047,0.06088853629512098
15.7,290,16799.093995763622,0.061483538278460925
15.70833,293,16762.50612016605,0.062078540261800874
15.71667,296,16725.992372310007,0.06267354224514082
15.725,299,16689.639729218856,0.06326854422848076
15.73333,302,16653.40375660838,0.06386354621182071
15.74167,304,16617.240583729523,0.064260214200714
15.75,307,16581.23635625996,0.06485521618405395
15.75833,311,16545.347070611657,0.06564855216184054
15.76667,314,16509.529278372614,0.06624355414518049
15.775,318,16473.868306162705,0.06703689012296708
15.78333,321,16438.320574678575,0.06763189210630702
15.79167,324,16402.843051566648,0.06822689408964697
15.8,328,16367.520256482465,0.06902023006743356
15.80833,331,16332.309028098316,0.06961523205077351
15.81667,335,16297.166743941687,0.07040856802856009
15.825,338,16262.177128605068,0.07100357001190004
15.83333,341,16227.29743252908,0.07159857199523999
15.84167,345,16192.485437043702,0.07239190797302658
15.85,348,16157.824083391657,0.07298690995636652
15.85833,351,16123.271027673714,0.07358191193970647
15.86667,354,16088.784449040759,0.07417691392304641
15.875,358,16054.446516914077,0.07497024990083301
15.88333,361,16020.21528704443,0.07556525188417294
15.89167,365,15986.04933051706,0.07635858786195954
15.9,369,15952.030056278805,0.07715192383974613
15.90833,372,15918.1159138156,0.07774692582308608
15.91667,376,15884.26586035496,0.07854026180087267
15.925,379,15850.560555537453,0.07913526378421261
15.93333,383,15816.958836763735,0.0799285997619992
15.94167,387,15783.420041702922,0.0807219357397858
15.95,391,15750.024091682597,0.08151527171757239
15.95833,394,15716.730206290238,0.08211027370091234
15.96667,398,15683.49809802659,0.08290360967869893
15.975,402,15650.40696072662,0.08369694565648553
15.98333,405,15617.416390527891,0.08429194763982546
15.99167,409,15584.486469241125,0.08508528361761206
16.0,413,15551.695673860875,0.08587861959539865
16.00833,417,15519.00397152652,0.08667195557318524
16.01667,422,15486.371807924888,0.08766362554541848
16.025,426,15453.8769536953,0.08845696152320508
16.03333,430,15421.479741518977,0.08925029750099167
16.04167,435,15389.14097561017,0.09024196747322491
16.05,438,15356.937730575066,0.09083696945656486
16.05833,442,15324.830699262582,0.09163030543435145
16.06667,447,15292.781039150248,0.09262197540658469
16.075,451,15260.865138972567,0.09341531138437129
16.08333,455,15229.044046456973,0.09420864736215788
16.09167,460,15197.27926716229,0.09520031733439112
16.1,464,15165.646513955488,0.09599365331217771
16.10833,469,15134.107184235421,0.09698532328441095
16.11667,473,15102.62312654281,0.09777865926219755
16.125,478,15071.269387724975,0.09877032923443078
16.13333,482,15040.007709728356,0.09956366521221738
16.14167,487,15008.800279054269,0.10055533518445062
16.15,492,14977.721486227236,0.10154700515668386
16.15833,496,14946.733412696458,0.10234034113447045
16.16667,501,14915.798577982358,0.10333201110670369
16.175,506,14884.990725832738,0.10432368107893693
16.18333,511,14854.272272234439,0.10531535105117017
16.19167,516,14823.606064861808,0.1063070210234034
16.2,521,14793.065210085066,0.10729869099563666
16.20833,526,14762.61245354065,0.1082903609678699
16.21667,532,14732.21096626815,0.10948036493454978
16.225,537,14701.933226514426,0.11047203490678302
16.23333,543,14671.74230475379,0.11166203887346292
16.24167,548,14641.601690676349,0.11265370884569616
16.25,552,14611.583243517913,0.11344704482348275
16.25833,558,14581.650353853543,0.11463704879016264
16.26667,564,14551.766825382918,0.11582705275684252
16.275,569,14522.003907302449,0.11681872272907576
16.28333,575,14492.325305625029,0.11800872669575566
16.29167,581,14462.695133490417,0.11919873066243554
16.3,587,14433.184038890171,0.12038873462911542
16.30833,592,14403.756038684207,0.12138040460134868
16.31667,598,14374.37555095367,0.12257040856802856
16.325,604,14345.11263118485,0.12376041253470844
16.33333,610,14315.931602564491,0.12495041650138834
16.34167,617,14286.797183686598,0.12633875446251489
16.35,623,14257.778846097859,0.12752875842919476
16.35833,629,14228.841214862521,0.12871876239587465
16.36667,636,14199.949304726459,0.13010710035700118
16.375,642,14171.17201173258,0.13129710432368108
16.38333,647,14142.474258441016,0.13228877429591432
16.39167,654,14113.821351456845,0.13367711225704085
16.4,661,14085.281619625344,0.1350654502181674
16.40833,667,14056.820278689622,0.13625545418484727
16.41667,673,14028.402922886222,0.13744545815152717
16.425,679,14000.097322043313,0.13863546211820707
16.43333,686,13971.868980839623,0.1400238000793336
16.44167,694,13943.683776981628,0.1416104720349068
16.45,701,13915.608929335674,0.14299880999603332
16.45833,708,13887.610227334408,0.14438714795715984
16.46667,715,13859.653828056391,0.1457754859182864
16.475,722,13831.80640733887,0.14716382387941293
16.48333,729,13804.034035251856,0.14855216184053946
16.49167,737,13776.30314421021,0.15013883379611265
16.5,744,13748.679874835248,0.1515271717572392
16.50833,751,13721.130573779541,0.15291550971836573
16.51667,759,13693.621944821478,0.15450218167393892
16.525,766,13666.219601060498,0.15589051963506545
16.53333,774,13638.89016173984,0.15747719159063864
16.54167,782,13611.600598089131,0.15906386354621183
16.55,790,13584.416003263328,0.160650535501785
16.55833,798,13557.303265165672,0.1622372074573582
16.56667,807,13530.229618624668,0.16402221340737802
16.575,816,13503.25964431341,0.16580721935739787
16.58333,824,13476.360494924878,0.16739389131297105
16.59167,833,13449.499665092271,0.16917889726299087
16.6,842,13422.741230357291,0.17096390321301072
16.60833,850,13396.052604390954,0.1725505751685839
16.61667,859,13369.401537895874,0.17433558111860373
16.625,868,13342.85160852097,0.17612058706862357
16.63333,876,13316.370487162387,0.17770725902419673
16.64167,885,13289.926176913228,0.17949226497421658
16.65,895,13263.581764659419,0.18147560491868306
16.65833,905,13237.305174826113,0.18345894486314954
16.66667,914,13211.064659274747,0.18524395081316938
16.675,923,13184.922821150065,0.1870289567631892
16.68333,933,13158.847834766662,0.18901229670765568
16.69167,943,13132.808197186852,0.19099563665212219
16.7,952,13106.86603473046,0.192780642602142
16.70833,962,13080.98976801763,0.19476398254660848
16.71667,972,13055.148135798596,0.19674732249107496
16.725,982,13029.402794379906,0.19873066243554144
16.73333,993,13003.722407157951,0.20091233637445458
16.74167,1003,12978.075951111343,0.20289567631892105
16.75,1014,12952.524619242558,0.2050773502578342
16.75833,1025,12927.037314248484,0.20725902419674733
16.76667,1035,12901.58324792914,0.2092423641412138
16.775,1046,12876.2231565914,0.21142403808012694
16.78333,1057,12850.926178809717,0.21360571201904005
16.79167,1068,12825.66175785055,0.2157873859579532
16.8,1079,12800.490179833772,0.21796905989686632
16.80833,1090,12775.38081584067,0.22015073383577946
16.81667,1102,12750.303337300002,0.22253074176913923
16.825,1113,12725.317586555704,0.22471241570805237
16.83333,1125,12700.39316387607,0.22709242364141213
16.84167,1137,12675.49996559836,0.22947243157477193
16.85,1149,12650.697396604875,0.2318524395081317
16.85833,1160,12625.955283082132,0.23403411344704483
16.86667,1172,12601.243743071052,0.2364141213804046
16.875,1185,12576.621750212124,0.23899246330821103
16.88333,1197,12552.059353390225,0.2413724712415708
16.89167,1210,12527.526889194558,0.24395081316937722
16.9,1223,12503.082906149524,0.24652915509718365
16.90833,1235,12478.69767266789,0.24890916303054345
16.91667,1248,12454.341740778793,0.2514875049583499
16.925,1260,12430.073239924908,0.2538675128917096
16.93333,1273,12405.862654924236,0.25644585481951604
16.94167,1286,12381.680750185267,0.25902419674732247
16.95,1299,12357.585242012043,0.2616025386751289
16.95833,1314,12333.54682855275,0.26457754859182864
16.96667,1326,12309.536483580769,0.26695755652518843
16.975,1340,12285.61151611555,0.2697342324474415
16.98333,1354,12261.742834607061,0.27251090836969455
16.99167,1368,12237.901619224924,0.27528758429194766
17.0,1383,12214.144777470077,0.27826259420864735
17.00833,1397,12190.443425111533,0.2810392701309004
17.01667,1411,12166.76894579158,0.2838159460531535
17.025,1426,12143.177851172082,0.2867909559698532
17.03333,1439,12119.641461403979,0.28936929789765964
17.04167,1454,12096.131360722962,0.2923443078143594
17.05,1469,12072.703670545809,0.2953193177310591
17.05833,1484,12049.32991251229,0.2982943276477588
17.06667,1499,12025.981868616353,0.30126933756445856
17.075,1514,12002.715275539236,0.30424434748115825
17.08333,1530,11979.501853561102,0.3074176913923046
17.09167,1546,11956.313579641452,0.310591035303451
17.1,1562,11933.20581115299,0.3137643792145974
17.10833,1578,11910.15046421062,0.31693772312574375
17.11667,1594,11887.119707989474,0.32011106703689013
17.125,1609,11864.168525898966,0.3230860769535898
17.13333,1624,11841.269027125703,0.32606108687028956
17.14167,1640,11818.393570352322,0.32923443078143594
17.15,1656,11795.596770289381,0.3324077746925823
17.15833,1672,11772.85092647433,0.3355811186037287
17.16667,1688,11750.128584430306,0.33875446251487507
17.175,1705,11727.483995354442,0.3421261404204681
17.18333,1721,11704.889646455431,0.34529948433161445
17.19167,1738,11682.318267470386,0.34867116223720745
17.2,1755,11659.823751190144,0.35204284014280046
17.20833,1772,11637.378769855693,0.35541451804839347
17.21667,1789,11614.956234831541,0.35878619595398653
17.225,1806,11592.609685532594,0.36215787385957954
17.23333,1823,11570.311976633118,0.36552955176517254
17.24167,1841,11548.036198578318,0.36909956366521224
17.25,1858,11525.83554236068,0.37247124157080524
17.25833,1876,11503.683042529166,0.3760412534708449
17.26667,1894,11481.551966101108,0.3796112653708846
17.275,1912,11459.495160526061,0.3831812772709242
17.28333,1930,11437.485837707067,0.3867512891709639
17.29167,1948,11415.497438764005,0.39032130107100355
17.3,1965,11393.58247240843,0.3936929789765966
17.30833,1983,11371.714325416173,0.39726299087663625
17.31667,2001,11349.866610577179,0.40083300277667594
17.325,2019,11328.091502597685,0.4044030146767156
17.33333,2038,11306.362560682242,0.4081713605712019
17.34167,2057,11284.653566896075,0.4119397064656882
17.35,2076,11263.016366600474,0.41570805236017455
17.35833,2095,11241.424689022686,0.4194763982546609
17.36667,2114,11219.852483144554,0.42324474414914715
17.375,2132,11198.351269572482,0.42681475604918684
17.38333,2151,11176.89494518643,0.43058310194367316
17.39167,2170,11155.457623563105,0.4343514478381595
17.4,2190,11134.090505073586,0.43831812772709244
17.40833,2209,11112.76765191762,0.4420864736215787
17.41667,2229,11091.463339980082,0.4460531535105117
17.425,2248,11070.228453847993,0.449821499404998
17.43333,2267,11049.037218743171,0.4535898452994843
17.44167,2287,11027.864070607437,0.4575565251884173
17.45,2307,11006.759582626808,0.4615232050773503
17.45833,2326,10985.698140783084,0.46529155097183655
17.46667,2347,10964.654338858303,0.4694565648552162
17.475,2365,10943.678442953455,0.47302657675525583
17.48333,2385,10922.744997583179,0.4769932566441888
17.49167,2405,10901.828752187119,0.4809599365331218
17.5,2425,10880.979670031405,0.48492661642205476
17.50833,2445,10860.172451970131,0.4888932963109877
17.51667,2465,10839.382000952237,0.49285997619992067
17.525,2484,10818.657981593435,0.496628322094407
17.53333,2505,10797.975248928336,0.5007933359777866
17.54167,2525,10777.308857299475,0.5047600158667196
17.55,2544,10756.708176792488,0.5085283617612059
17.55833,2565,10736.148214496838,0.5126933756445855
17.56667,2586,10715.60417406616,0.5168583895279651
17.575,2607,10695.125135112767,0.5210234034113447
17.58333,2628,10674.686254688342,0.5251884172947243
17.59167,2649,10654.262883706902,0.529353431178104
17.6,2669,10633.90381530211,0.5333201110670369
17.60833,2690,10613.584354427063,0.5374851249504164
17.61667,2710,10593.279997238415,0.5414518048393495
17.625,2731,10573.039254322975,0.545616818722729
17.63333,2751,10552.837576507583,0.549583498611662
17.64167,2772,10532.650603204153,0.5537485124950416
17.65,2793,10512.526566324417,0.5579135263784213
17.65833,2813,10492.441060571822,0.5618802062673542
17.66667,2834,10472.369866658448,0.5660452201507339
17.675,2855,10452.360941631507,0.5702102340341134
17.68333,2877,10432.390022106201,0.5745735819119397
17.69167,2898,10412.433028169356,0.5787385957953193
17.7,2919,10392.537645755243,0.5829036096786989
17.70833,2938,10372.679751456273,0.5866719555731852
17.71667,2959,10352.83540283939,0.5908369694565648
17.725,2981,10333.052018418806,0.5952003173343912
17.73333,3002,10313.305612859996,0.5993653312177707
17.74167,3023,10293.57237934511,0.6035303451011503
17.75,3043,10273.899472603181,0.6074970249900833
17.75833,3065,10254.263043498606,0.6118603728679095
17.76667,3086,10234.639418993509,0.6160253867512892
17.775,3107,10215.075493609314,0.6201904006346688
17.78333,3128,10195.547552564896,0.6243554145180484
17.79167,3149,10176.032054796035,0.628520428401428
17.8,3170,10156.575638137774,0.6326854422848076
17.80833,3190,10137.154720348104,0.6366521221737406
17.81667,3211,10117.745890559081,0.6408171360571202
17.825,3232,10098.395533384823,0.6449821499404998
17.83333,3252,10079.08019733595,0.6489488298294328
17.84167,3273,10059.77659999165,0.6531138437128123
17.85,3294,10040.53087615529,0.657278857596192
17.85833,3315,10021.319703332307,0.6614438714795716
17.86667,3336,10002.119925827916,0.6656088853629513
17.875,3356,9982.97743199076,0.6695755652518842
17.88333,3376,9963.869026590985,0.6735422451408172
17.89167,3397,9944.77167896669,0.6777072590241967
17.9,3417,9925.7310343137,0.6816739389131297
17.90833,3438,9906.724022965109,0.6858389527965093
17.91667,3459,9887.727737625662,0.690003966679889
17.925,3478,9868.78758358724,0.6937723125743752
17.93333,3499,9849.880615071537,0.6979373264577549
17.94167,3519,9830.984046510444,0.7019040063466878
17.95,3539,9812.143046489022,0.7058706862356208
17.95833,3559,9793.33479146949,0.7098373661245537
17.96667,3579,9774.536615999023,0.7138040460134867
17.975,3599,9755.793455100074,0.7177707259024196
17.98333,3619,9737.082605855167,0.7217374057913526
17.99167,3639,9718.381521340052,0.7257040856802855
18.0,3659,9699.734906108572,0.7296707655692186
18.00833,3679,9681.120176268743,0.7336374454581516
18.01667,3698,9662.514901865132,0.7374057913526378
18.025,3718,9643.963560025884,0.7413724712415708
18.03333,3737,9625.443684316311,0.7451408171360571
18.04167,3756,9606.93296021512,0.7489091630305434
18.05,3776,9588.47564041787,0.7528758429194764
18.05833,3795,9570.049374404904,0.7566441888139627
18.06667,3814,9551.631961579611,0.760412534708449
18.075,3833,9533.267433149054,0.7641808806029353
18.08333,3852,9514.93355299101,0.7679492264974217
18.09167,3871,9496.608232949884,0.771717572391908
18.1,3890,9478.33528563885,0.7754859182863942
18.10833,3908,9460.092587841451,0.7790559301864339
18.11667,3927,9441.858162383587,0.7828242760809203
18.125,3945,9423.675606131508,0.7863942879809599
18.13333,3963,9405.522907307282,0.7899642998809996
18.14167,3982,9387.37819828344,0.793732645775486
18.15,4000,9369.284862978386,0.7973026576755256
18.15833,4018,9351.220999610217,0.8008726695755652
18.16667,4036,9333.164848687064,0.8044426814756049
18.175,4053,9315.159583931758,0.8078143593811979
18.18333,4070,9297.183412140013,0.811186037286791
18.19167,4088,9279.214680568815,0.8147560491868306
18.2,4105,9261.296355450708,0.8181277270924237
18.20833,4123,9243.406750764814,0.8216977389924633
18.21667,4140,9225.524319153483,0.8250694168980564
18.225,4157,9207.691822018853,0.8284410948036494
18.23333,4174,9189.887679152278,0.8318127727092424
18.24167,4190,9172.090447241817,0.8349861166203887
18.25,4207,9154.34268547288,0.8383577945259818
18.25833,4223,9136.622918102074,0.8415311384371281
18.26667,4241,9118.909804545809,0.8451011503371678
18.275,4256,9101.24570434223,0.8480761602538676
18.28333,4271,9083.609244888701,0.8510511701705672
18.29167,4287,9065.979187036095,0.8542245140817136
18.3,4302,9048.397693199604,0.8571995239984134
18.30833,4317,9030.843492616246,0.860174533915113
18.31667,4334,9013.295446299348,0.8635462118207061
18.325,4348,8995.795522022061,0.8663228877429592
18.33333,4363,8978.32254958207,0.8692978976596588
18.34167,4378,8960.855488905841,0.8722729075763586
18.35,4392,8943.43611556168,0.8750495834986116
18.35833,4407,8926.043358651528,0.8780245934153114
18.36667,4421,8908.656275787374,0.8808012693375644
18.375,4435,8891.31645272704,0.8835779452598176
18.38333,4449,8874.002916642243,0.8863546211820706
18.39167,4463,8856.694821624878,0.8891312971043237
18.4,4477,8839.433565973894,0.8919079730265768
18.40833,4490,8822.198273718228,0.8944863149543831
18.41667,4504,8804.968194245323,0.8972629908766363
18.425,4517,8787.784540705294,0.8998413328044427
18.43333,4529,8770.626532792961,0.9022213407378025
18.44167,4542,8753.473514028428,0.9047996826656088
18.45,4555,8736.366514681082,0.9073780245934153
18.45833,4567,8719.284848942098,0.9097580325267751
18.46667,4580,8702.207953321953,0.9123363744545815
18.475,4592,8685.17667743661,0.9147163823879413
18.48333,4605,8668.170428824773,0.9172947243157478
18.49167,4617,8651.168735866144,0.9196747322491075
18.5,4629,8634.21226970965,0.9220547401824672
18.50833,4641,8617.280530113718,0.924434748115827
18.51667,4652,8600.353136226508,0.9266164220547402
18.525,4664,8583.470582876345,0.9289964299881
18.53333,4675,8566.612460933935,0.9311781039270131
18.54167,4686,8549.758479235617,0.9333597778659262
18.55,4697,8532.948958395278,0.9355414518048394
18.55833,4708,8516.163579309501,0.9377231257437525
18.56667,4719,8499.382139441992,0.9399047996826656
18.575,4729,8482.644787259747,0.9418881396271321
18.58333,4738,8465.931292618137,0.9436731455771519
18.59167,4747,8449.221540567958,0.9454581515271717
18.6,4757,8432.555509457503,0.9474414914716383
18.60833,4766,8415.913057054206,0.9492264974216581
18.61667,4775,8399.274154974892,0.951011503371678
18.625,4784,8382.678613439044,0.9527965093216978
18.63333,4794,8366.106377098795,0.9547798492661642
18.64167,4803,8349.537503135858,0.9565648552161841
18.65,4811,8333.011635592284,0.9581515271717572
18.65833,4820,8316.508804997477,0.9599365331217771
18.66667,4828,8300.00915311549,0.9615232050773502
18.675,4836,8283.552159725288,0.9631098770329234
18.68333,4844,8267.117940244983,0.9646965489884967
18.69167,4853,8250.686720057673,0.9664815549385165
18.7,4860,8234.297816555896,0.967869892899643
18.70833,4867,8217.931429077198,0.9692582308607696
18.71667,4875,8201.567865679264,0.9708449028163427
18.725,4882,8185.246283208009,0.9722332407774693
18.73333,4889,8168.946963969896,0.9736215787385958
18.74167,4896,8152.650297771124,0.9750099166997224
18.75,4901,8136.39528271448,0.9760015866719556
18.75833,4908,8120.162283143545,0.9773899246330822
18.76667,4914,8103.931769705389,0.978579928599762
18.775,4920,8087.742583527107,0.9797699325664418
18.78333,4926,8071.5751700756855,0.9809599365331217
18.79167,4931,8055.410079949766,0.9819516065053551
18.8,4937,8039.285999032228,0.9831416104720349
18.80833,4942,8023.183453018288,0.9841332804442682
18.81667,4947,8007.083071586856,0.9851249504165014
18.825,4952,7991.023387072635,0.9861166203887346
18.83333,4957,7974.985004521958,0.9871082903609679
18.84167,4961,7958.94863184025,0.9879016263387544
18.85,4966,7942.952649475462,0.9888932963109877
18.85833,4970,7926.977740965763,0.9896866322887743
18.86667,4974,7911.004691606793,0.9904799682665609
18.875,4979,7895.071731586443,0.9914716382387941
18.88333,4983,7879.159622092848,0.9922649742165808
18.89167,4986,7863.249224993356,0.9928599761999206
18.9,4990,7847.378621808264,0.9936533121777072
18.90833,4993,7831.528650551363,0.9942483141610472
18.91667,4995,7815.680248860209,0.9946449821499405
18.925,4998,7799.871351145896,0.9952399841332804
18.93333,5002,7784.082871441013,0.996033320111067
18.94167,5004,7768.2958223689375,0.9964299880999603
18.95,5007,7752.547992756362,0.9970249900833003
18.95833,5009,7736.820371864885,0.9974216580721936
18.96667,5011,7721.094046535844,0.9978183260610869
18.975,5013,7705.406661503624,0.9982149940499802
18.98333,5013,7689.73928048562,0.9982149940499802
18.99167,5015,7674.073063790338,0.9986116620388734
19.0,5016,7658.445513518659,0.9988099960333201
19.00833,5017,7642.837767087534,0.9990083300277668
19.01667,5018,7627.231057538066,0.9992066640222134
19.025,5019,7611.66274576423,0.99940499801666
19.03333,5019,7596.114042142536,0.99940499801666
19.04167,5019,7580.56625172869,0.99940499801666
19.05,5020,7565.056595603927,0.9996033320111067
19.05833,5020,7549.566356381045,0.9996033320111067
19.06667,5021,7534.07691042811,0.9998016660055533
19.075,5022,7518.6253403762385,1.0
19.08333,5022,7503.193000367234,1.0
19.09167,5022,7487.761337395356,1.0
19.1,5022,7472.367296972673,1.0
19.10833,5022,7456.992304078591,1.0
19.11667,5021,7441.617875663384,0.9998016660055533
19.125,5020,7426.280821419743,0.9996033320111067
19.13333,5019,7410.962636489347,0.99940499801666
19.14167,5017,7395.644907123793,0.9990083300277668
19.15,5015,7380.364308465317,0.9986116620388734
19.15833,5014,7365.102405158351,0.9984133280444268
19.16667,5012,7349.840852116076,0.9980166600555335
19.175,5010,7334.6161911691715,0.9976199920666402
19.18333,5008,7319.410055820158,0.9972233240777469
19.19167,5006,7304.204169020173,0.9968266560888537
19.2,5004,7289.034940496388,0.9964299880999603
19.20833,5002,7273.884071980515,0.996033320111067
19.21667,5000,7258.733353852709,0.9956366521221738
19.225,4997,7243.619064915045,0.9950416501388338
19.23333,4994,7228.522974514746,0.9944466481554939
19.24167,4991,7213.4269398668675,0.9938516461721539
19.25,4988,7198.367109997385,0.993256644188814
19.25833,4985,7183.325321270052,0.992661642205474
19.26667,4981,7168.283497155771,0.9918683062276874
19.275,4978,7153.277658023883,0.9912733042443475
19.28333,4975,7138.289706670863,0.9906783022610075
19.29167,4971,7123.30163225868,0.989884966283221
19.3,4967,7108.349327590912,0.9890916303054343
19.30833,4963,7093.414761327319,0.9882982943276477
19.31667,4959,7078.4799877709365,0.9875049583498612
19.325,4955,7063.580773221497,0.9867116223720745
19.33333,4951,7048.699151647264,0.985918286394288
19.34167,4947,7033.817241956398,0.9851249504165014
19.35,4942,7018.970684978727,0.9841332804442682
19.35833,4938,7004.141579450382,0.9833399444664815
19.36667,4933,6989.312108363072,0.9823482744942483
19.375,4929,6974.517788082243,0.9815549385164617
19.38333,4924,6959.740781585808,0.9805632685442285
19.39167,4919,6944.963335441187,0.9795715985719953
19.4,4914,6930.2208425276,0.978579928599762
19.40833,4909,6915.495529552243,0.9775882586275287
19.41667,4904,6900.769706164598,0.9765965886552955
19.425,4898,6886.07864270794,0.9754065846886156
19.43333,4893,6871.404629120632,0.9744149147163824
19.44167,4888,6856.730037653762,0.9734232447441491
19.45,4882,6842.090017038274,0.9722332407774693
19.45833,4876,6827.466919958954,0.9710432368107894
19.46667,4870,6812.843180801878,0.9698532328441095
19.475,4865,6798.253827582254,0.9688615628718762
19.48333,4860,6783.681275260189,0.967869892899643
19.49167,4853,6769.108019903342,0.9664815549385165
19.5,4847,6754.568969681315,0.9652915509718366
19.50833,4841,6740.0466013717705,0.9641015470051567
19.51667,4835,6725.523472283922,0.9629115430384768
19.525,4828,6711.034371585543,0.9615232050773502
19.53333,4821,6696.561837427481,0.9601348671162238
19.54167,4815,6682.088487933445,0.9589448631495439
19.55,4808,6667.648994087149,0.9575565251884173
19.55833,4801,6653.225954981443,0.9561681872272908
19.56667,4794,6638.80204914034,0.9547798492661642
19.575,4787,6624.411830155813,0.9533915113050376
19.58333,4779,6610.037957644136,0.9518048393494645
19.59167,4772,6595.663170128427,0.950416501388338
19.6,4764,6581.321904575518,0.9488298294327647
19.60833,4757,6566.996880719815,0.9474414914716383
19.61667,4748,6552.670896694731,0.9456564855216184
19.625,4741,6538.378273583714,0.9442681475604918
19.63333,4733,6524.101790846288,0.9426814756049187
19.64167,4725,6509.82430585003,0.9410948036493455
19.65,4718,6495.580024511795,0.9397064656882189
19.65833,4710,6481.351785636037,0.9381197937326458
19.66667,4702,6467.122505460306,0.9365331217770726
19.675,4694,6452.926275427455,0.9349464498214994
19.68333,4686,6438.745993318697,0.9333597778659262
19.69167,4678,6424.564633890088,0.931773105910353
19.7,4670,6410.416174778284,0.9301864339547798
19.70833,4662,6396.283572385635,0.9285997619992067
19.71667,4653,6382.149859646948,0.9268147560491868
19.725,4645,6368.048901036967,0.9252280840936137
19.73333,4636,6353.963711235457,0.9234430781435938
19.74167,4627,6339.877381027988,0.921658072193574
19.75,4619,6325.8236623479015,0.9200714002380008
19.75833,4611,6311.785627820724,0.9184847282824276
19.76667,4602,6297.746425766709,0.9166997223324078
19.775,4594,6283.739696174792,0.9151130503768345
19.78333,4585,6269.748569296346,0.9133280444268148
19.79167,4577,6255.75625068191,0.9117413724712415
19.8,4568,6241.796268949852,0.9099563665212217
19.80833,4560,6227.851811669053,0.9083696945656485
19.81667,4551,6213.9061413274,0.9065846886156287
19.825,4542,6199.992675723674,0.9047996826656088
19.83333,4534,6186.094659447541,0.9032130107100357
19.84167,4525,6172.195411642567,0.9014280047600158
19.85,4517,6158.328239816374,0.8998413328044427
19.85833,4508,6144.476445294073,0.8980563268544228
19.86667,4499,6130.623403604296,0.896271320904403
19.875,4490,6116.802312469812,0.8944863149543831
19.88333,4481,6102.9965296768805,0.8927013090043634
19.89167,4472,6089.189486879806,0.8909163030543436
19.9,4463,6075.414272500468,0.8891312971043237
19.90833,4454,6061.654300523273,0.8873462911543039
19.91667,4445,6047.893058479745,0.885561285204284
19.925,4435,6034.163525953114,0.8835779452598176
19.93333,4426,6020.449172873895,0.8817929393097977
19.94167,4417,6006.733542412809,0.8800079333597779
19.95,4407,5993.049505755622,0.8780245934153114
19.95833,4397,5979.38058853737,0.8760412534708449
19.96667,4387,5965.710389340892,0.8740579135263784
19.975,4377,5952.071671374094,0.872074573581912
19.98333,4367,5938.448015745831,0.8700912336374454
19.99167,4358,5924.82307623448,0.8683062276874256
20.0,4349,5911.229508468611,0.8665212217374058
20.00833,4339,5897.65094881101,0.8645378817929393
20.01667,4330,5884.071106028911,0.8627528758429195
20.025,4320,5870.522528550068,0.860769535898453
20.03333,4311,5856.988907780865,0.8589845299484331
20.04167,4301,5843.454007281737,0.8570011900039667
20.05,4292,5829.950268636732,0.8552161840539468
20.05833,4282,5816.461438096931,0.8532328441094804
20.06667,4272,5802.9713338292795,0.8512495041650139
20.075,4263,5789.512290912088,0.849464498214994
20.08333,4253,5776.068110251435,0.8474811582705276
20.09167,4243,5762.6226644448125,0.8454978183260611
20.1,4233,5749.208182382448,0.8435144783815947
20.10833,4224,5735.808519445931,0.8417294724315748
20.11667,4214,5722.407602496776,0.8397461324871083
20.125,4204,5709.037554535382,0.8377627925426419
20.13333,4194,5695.682285249119,0.8357794525981753
20.14167,4184,5682.325775606971,0.8337961126537089
20.15,4174,5669.000042998063,0.8318127727092424
20.15833,4164,5655.689051255852,0.8298294327647758
20.16667,4154,5642.3768353092355,0.8278460928203094
20.175,4145,5629.0953071962385,0.8260610868702896
20.18333,4135,5615.828484745726,0.8240777469258231
20.19167,4125,5602.560456708851,0.8220944069813566
20.2,4115,5589.323030013377,0.8201110670368901
20.20833,4105,5576.100276342636,0.8181277270924237
20.21667,4094,5562.876338141399,0.8159460531535105
20.225,4084,5549.682917449681,0.813962713209044
20.23333,4074,5536.50413967368,0.8119793732645776
20.24167,4064,5523.324200831994,0.809996033320111
20.25,4054,5510.1746982815675,0.8080126933756446
20.25833,4045,5497.039811028619,0.8062276874256248
20.26667,4035,5483.903788555208,0.8042443474811583
20.275,4024,5470.798123721265,0.8020626735422451
20.28333,4015,5457.707049019744,0.8002776675922253
20.29167,4006,5444.61486729417,0.7984926616422054
20.3,3996,5431.5529670763835,0.796509321697739
20.30833,3986,5418.5056342411535,0.7945259817532725
20.31667,3977,5405.457224900448,0.7927409758032526
20.325,3967,5392.439023409287,0.7907576358587862
20.33333,3955,5379.435368928401,0.7883776279254264
20.34167,3946,5366.430670753449,0.7865926219754066
20.35,3936,5353.456109197039,0.7846092820309402
20.35833,3926,5340.496076618234,0.7826259420864736
20.36667,3916,5327.5350354204,0.7806426021420071
20.375,3906,5314.6040619908545,0.7786592621975407
20.38333,3896,5301.6876018082185,0.7766759222530741
20.39167,3886,5288.770170315534,0.7746925823086077
20.4,3877,5275.882740075674,0.7729075763585879
20.40833,3867,5263.009809616067,0.7709242364141213
20.41667,3857,5250.135947359798,0.7689408964696549
20.425,3848,5237.292022129641,0.7671558905196351
20.43333,3838,5224.46258543944,0.7651725505751685
20.44167,3827,5211.632258640416,0.7629908766362554
20.45,3817,5198.831806883685,0.761007536691789
20.45833,3807,5186.045834615057,0.7590241967473225
20.46667,3798,5173.259016069955,0.7572391907973026
20.475,3788,5160.502012780563,0.7552558508528362
20.48333,3778,5147.759482078066,0.7532725109083697
20.49167,3767,5135.016151045858,0.7510908369694566
20.5,3756,5122.302577634219,0.7489091630305434
20.50833,3746,5109.603472020997,0.7469258230860769
20.51667,3736,5096.903614109138,0.7449424831416105
20.525,3725,5084.23345828873,0.7427608092026974
20.53333,3715,5071.577767553201,0.7407774692582308
20.54167,3705,5058.921374603693,0.7387941293137644
20.55,3697,5046.294630277223,0.7372074573581912
20.55833,3686,5033.682350359039,0.735025783419278
20.56667,3676,5021.069420334728,0.7330424434748116
20.575,3667,5008.486087480415,0.7312574375247918
20.58333,3658,4995.917220356946,0.7294724315747719
20.59167,3648,4983.347757227593,0.7274890916303054
20.6,3638,4970.8078417854385,0.725505751685839
20.60833,3629,4958.282395357804,0.7237207457358191
20.61667,3619,4945.75640898598,0.7217374057913526
20.625,3609,4933.259922743779,0.7197540658468862
20.63333,3600,4920.777910722934,0.7179690598968663
20.64167,3590,4908.295416750154,0.7159857199523998
20.65,3581,4895.842377229621,0.71420071400238
20.65833,3571,4883.4038190226065,0.7122173740579135
20.66667,3561,4870.964838755044,0.7102340341134471
20.675,3551,4858.555269097828,0.7082506941689806
20.68333,3542,4846.160189693495,0.7064656882189607
20.69167,3532,4833.764749987848,0.7044823482744943
20.7,3522,4821.398678841462,0.7024990083300278
20.70833,3512,4809.047108696483,0.7005156683855612
20.71667,3503,4796.695241845749,0.6987306624355415
20.725,3494,4784.3727032493325,0.6969456564855216
20.73333,3484,4772.064678174078,0.6949623165410551
20.74167,3474,4759.756421793281,0.6929789765965887
20.75,3465,4747.477455063631,0.6911939706465688
20.75833,3455,4735.213016107825,0.6892106307021023
20.76667,3446,4722.948413019525,0.6874256247520825
20.775,3436,4710.713062636486,0.685442284807616
20.78333,3426,4698.4922559750685,0.6834589448631495
20.79167,3417,4686.271354094874,0.6816739389131297
20.8,3409,4674.079669587302,0.6800872669575565
20.80833,3400,4661.902546405975,0.6783022610075367
20.81667,3391,4649.7253986282585,0.6765172550575168
20.825,3382,4637.577434459428,0.6747322491074971
20.83333,3373,4625.444050840296,0.6729472431574772
20.84167,3364,4613.310714923336,0.6711622372074574
20.85,3354,4601.206530376618,0.6691788972629908
20.85833,3344,4589.116947183621,0.6671955573185244
20.86667,3335,4577.027485635124,0.6654105513685046
20.875,3325,4564.967144699368,0.663427211424038
20.88333,3316,4552.921427463815,0.6616422054740182
20.89167,3306,4540.875907426277,0.6596588655295518
20.9,3296,4528.859478681379,0.6576755255850852
20.90833,3287,4516.857697487448,0.6558905196350655
20.91667,3279,4504.856190623331,0.6543038476794922
20.925,3269,4492.883747125545,0.6523205077350258
20.93333,3260,4480.925976495441,0.650535501785006
20.94167,3251,4468.968558872485,0.6487504958349861
20.95,3242,4457.040178039704,0.6469654898849663
20.95833,3233,4445.126496819329,0.6451804839349464
20.96667,3223,4433.2132487956205,0.64319714399048
20.975,3214,4421.329012292961,0.6414121380404602
20.98333,3205,4409.459503536932,0.6396271320904403
20.99167,3196,4397.590509646315,0.6378421261404205
21.0,3186,4385.750503271109,0.635858786195954
21.00833,3177,4373.925254128254,0.6340737802459342
21.01667,3168,4362.10060296517,0.6322887742959143
21.025,3159,4350.304916532486,0.6305037683458945
21.03333,3150,4338.524018131016,0.6287187623958747
21.04167,3140,4326.743802235917,0.6267354224514081
21.05,3131,4314.99252946367,0.6249504165013884
21.05833,3122,4303.256076796543,0.6231654105513685
21.06667,3113,4291.520392540932,0.6213804046013487
21.075,3104,4279.813630935262,0.6195953986513288
21.08333,3096,4268.121722745346,0.6180087266957557
21.09167,3087,4256.430670216828,0.6162237207457358
21.1,3079,4244.768520957316,0.6146370487901627
21.10833,3070,4233.121259622765,0.6128520428401428
21.11667,3062,4221.474942510274,0.6112653708845697
21.125,3054,4209.8575103353205,0.6096786989289964
21.13333,3046,4198.255001754794,0.6080920269734232
21.14167,3038,4186.653527233854,0.6065053550178501
21.15,3029,4175.080920325974,0.6047203490678302
21.15833,3020,4163.523273804061,0.6029353431178104
21.16667,3010,4151.966752421812,0.600952003173344
21.175,3002,4140.439082292913,0.5993653312177707
21.18333,2993,4128.9264104254935,0.5975803252677508
21.19167,2985,4117.414955986088,0.5959936533121777
21.2,2976,4105.93233736302,0.5942086473621578
21.20833,2967,4094.4647559226355,0.592423641412138
21.21667,2959,4082.998485372553,0.5908369694565648
21.225,2950,4071.5610360824535,0.589051963506545
21.23333,2941,4060.13866390392,0.5872669575565251
21.24167,2932,4048.717697217292,0.5854819516065054
21.25,2923,4037.3255380732517,0.5836969456564856
21.25833,2915,4025.9484969391265,0.5821102737009123
21.26667,2906,4014.572957003204,0.5803252677508925
21.275,2898,4003.2262116898587,0.5787385957953193
21.28333,2890,3991.894626216191,0.5771519238397461
21.29167,2881,3980.564638716997,0.5753669178897263
21.3,2872,3969.2634336762317,0.5735819119397064
21.30833,2864,3957.977431198275,0.5719952399841333
21.31667,2855,3946.69312450628,0.5702102340341134
21.325,2847,3935.4375888231025,0.5686235620785403
21.33333,2839,3924.1972992812753,0.5670368901229671
21.34167,2830,3912.958804337037,0.5652518841729472
21.35,2823,3901.749069625608,0.5638635462118207
21.35833,2815,3890.5546254514747,0.5622768742562475
21.36667,2806,3879.3620756517735,0.5604918683062277
21.375,2798,3868.198275941536,0.5589051963506545
21.38333,2789,3857.04981194397,0.5571201904006347
21.39167,2781,3845.9033430278223,0.5555335184450615
21.4,2772,3834.785614649705,0.5537485124950416
21.40833,2764,3823.6832679013114,0.5521618405394685
21.41667,2755,3812.5830178361743,0.5503768345894486
21.425,2748,3801.511499309135,0.548988496628322
21.43333,2739,3790.4554090326646,0.5472034906783022
21.44167,2732,3779.401517901026,0.5458151527171757
21.45,2724,3768.376349818611,0.5442284807616026
21.45833,2716,3757.3666572738825,0.5426418088060293
21.46667,2708,3746.3592671597603,0.5410551368504561
21.475,2699,3735.3805920771188,0.5392701309004363
21.48333,2691,3724.417440447643,0.5376834589448631
21.49167,2683,3713.4566953236135,0.53609678698929
21.5,2676,3702.5246576443847,0.5347084490281634
21.50833,2668,3691.6081919248218,0.5331217770725902
21.51667,2661,3680.6942375389594,0.5317334391114638
21.525,2654,3669.80898340283,0.5303451011503372
21.53333,2646,3658.9393502862195,0.528758429194764
21.54167,2637,3648.072334049647,0.5269734232447442
21.55,2630,3637.2340112197558,0.5255850852836176
21.55833,2622,3626.4113589852413,0.5239984133280444
21.56667,2614,3615.591429859614,0.5224117413724713
21.575,2606,3604.8001876104668,0.5208250694168981
21.58333,2598,3594.0246660113216,0.5192383974613248
21.59167,2591,3583.2519743968323,0.5178500595001984
21.6,2583,3572.5079634024955,0.5162633875446252
21.60833,2575,3561.7797235543158,0.5146767155890519
21.61667,2567,3551.054421177978,0.5130900436334788
21.625,2560,3540.357793400546,0.5117017056723523
21.63333,2553,3529.676987669927,0.5103133677112257
21.64167,2545,3518.999227473954,0.5087266957556525
21.65,2538,3508.3501360523637,0.507338357794526
21.65833,2530,3497.7169179457183,0.5057516858389528
21.66667,2522,3487.0868539767184,0.5041650138833796
21.675,2514,3476.4854531158526,0.5025783419278064
21.68333,2506,3465.8999771687504,0.5009916699722332
21.69167,2498,3455.3177644667953,0.49940499801666005
21.7,2491,3444.7642093272843,0.4980166600555335
21.70833,2484,3434.2266309941715,0.496628322094407
21.71667,2475,3423.6924254825612,0.49484331614438715
21.725,2468,3413.1868720703305,0.4934549781832606
21.73333,2460,3402.6973476146227,0.4918683062276874
21.74167,2453,3392.211305989901,0.4904799682665609
21.75,2445,3381.7539110468842,0.4888932963109877
21.75833,2439,3371.3125974313443,0.4877032923443078
21.76667,2431,3360.8748770539723,0.48611662038873465
21.775,2423,3350.465797948752,0.48452994843316144
21.78333,2415,3340.0728527265633,0.4829432764775883
21.79167,2408,3329.683611511721,0.4815549385164617
21.8,2400,3319.323006130746,0.47996826656088853
21.80833,2393,3308.9785873368724,0.478579928599762
21.81667,2386,3298.637983645987,0.4771915906386355
21.825,2379,3288.326010285377,0.47580325267750895
21.83333,2372,3278.0302763285295,0.47441491471638236
21.84167,2365,3267.7384688612265,0.47302657675525583
21.85,2358,3257.4752861190245,0.4716382387941293
21.85833,2351,3247.2283956739525,0.4702499008330028
21.86667,2344,3236.9855433604453,0.46886156287187625
21.875,2337,3226.771310029352,0.4674732249107497
21.88333,2330,3216.573421929892,0.4660848869496232
21.89167,2323,3206.3796838240323,0.4646965489884966
21.9,2316,3196.214558784651,0.4633082110273701
21.90833,2308,3186.0658319171694,0.4617215390717969
21.91667,2300,3175.9213670900044,0.4601348671162237
21.925,2293,3165.805509204888,0.45874652915509717
21.93333,2286,3155.7061024023656,0.45735819119397064
21.94167,2279,3145.6110698362545,0.4559698532328441
21.95,2272,3135.544637844217,0.4545815152717176
21.95833,2265,3125.494709780884,0.45319317731059106
21.96667,2258,3115.449268264299,0.45180483934946447
21.975,2251,3105.432420675502,0.45041650138833794
21.98333,2246,3095.432129762245,0.44942483141610473
21.99167,2239,3085.4364377850493,0.4480364934549782
22.0,2232,3075.469332776861,0.4466481554938517
22.00833,2225,3065.5188370570468,0.4452598175327251
22.01667,2218,3055.5730527066426,0.44387147957159856
22.025,2211,3045.655848019893,0.44248314161047203
22.03333,2204,3035.7553050659744,0.4410948036493455
22.04167,2197,3025.8595859239617,0.439706465688219
22.05,2189,3015.992438759996,0.43811979373264576
22.05833,2183,3006.1420055709104,0.43692978976596586
22.06667,2176,2996.2965086104505,0.43554145180483933
22.075,2169,2986.479575529048,0.4341531138437128
22.08333,2162,2976.6794084281555,0.4327647758825863
22.09167,2156,2966.884289912178,0.4315747719159064
22.1,2149,2957.117726729908,0.43018643395477985
22.10833,2142,2947.3679812637183,0.4287980959936533
22.11667,2136,2937.623396643802,0.4276080920269734
22.125,2129,2927.9073583332943,0.4262197540658469
22.13333,2123,2918.208189171053,0.425029750099167
22.14167,2116,2908.514292986996,0.42364141213804046
22.15,2110,2898.8489335771183,0.42245140817136057
22.15833,2103,2889.2004944110245,0.42106307021023404
22.16667,2097,2879.5574401914455,0.41987306624355414
22.175,2090,2869.9429126678906,0.4184847282824276
22.18333,2083,2860.3453561143583,0.4170963903213011
22.19167,2077,2850.7532962777864,0.4159063863546212
22.2,2070,2841.189752484951,0.41451804839349465
22.20833,2064,2831.6432299863054,0.41332804442681476
22.21667,2057,2822.102315743417,0.4119397064656882
22.225,2051,2812.5899062868634,0.41074970249900833
22.23333,2045,2803.094568014412,0.40955969853232843
22.24167,2039,2793.6049492709158,0.40836969456564853
22.25,2032,2784.143823420712,0.406981356604522
22.25833,2026,2774.699818178205,0.4057913526378421
22.26667,2020,2765.261643438821,0.40460134867116226
22.275,2014,2755.8519490338263,0.40341134470448237
22.28333,2008,2746.4594241621717,0.40222134073780247
22.29167,2002,2737.0728404352644,0.40103133677112257
22.3,1995,2727.7147237883883,0.39964299880999604
22.30833,1989,2718.373825071135,0.39845299484331614
22.31667,1983,2709.03897777457,0.39726299087663625
22.325,1977,2699.7325835789,0.39607298690995635
22.33333,1972,2690.4434551487066,0.39508131693772314
22.34167,1965,2681.1604880164823,0.3936929789765966
22.35,1959,2671.9059592523267,0.3925029750099167
22.35833,1953,2662.6687434984196,0.3913129710432368
22.36667,1947,2653.4377984882294,0.3901229670765569
22.375,1941,2644.2352763314016,0.388932963109877
22.38333,1935,2635.0501138079485,0.3877429591431971
22.39167,1928,2625.871331010105,0.3863546211820706
22.4,1921,2616.7209547408156,0.38496628322094406
22.40833,1915,2607.587984076579,0.38377627925426416
22.41667,1909,2598.4615016234457,0.38258627528758427
22.425,1903,2589.363408536694,0.3813962713209044
22.43333,1897,2580.2827663453154,0.3802062673542245
22.44167,1890,2571.2087203222877,0.378817929393098
22.45,1885,2562.1630456389257,0.37782625942086473
22.45833,1879,2553.1348664307407,0.37663625545418483
22.46667,1872,2544.113390787913,0.3752479174930583
22.475,1866,2535.120267567121,0.3740579135263784
22.48333,1861,2526.144683661665,0.3730662435541452
22.49167,1855,2517.175910126974,0.3718762395874653
22.5,1850,2508.235469179562,0.37088456961523203
22.50833,1844,2499.3126106194704,0.3696945656485522
22.51667,1838,2490.3966686126237,0.3685045616818723
22.525,1832,2481.509038415628,0.3673145577151924
22.53333,1826,2472.639032881527,0.3661245537485125
22.54167,1820,2463.776049429309,0.3649345497818326
22.55,1814,2454.941356041708,0.3637445458151527
22.55833,1808,2446.1243287684274,0.36255454184847286
22.56667,1802,2437.3144284210857,0.36136453788179296
22.575,1796,2428.532795400759,0.36017453391511306
22.58333,1790,2419.768869094495,0.35898452994843316
22.59167,1785,2411.012173843299,0.3579928599761999
22.6,1779,2402.283722165016,0.35680285600952005
22.60833,1774,2393.573016921914,0.3558111860372868
22.61667,1768,2384.8696461180307,0.3546211820706069
22.625,1762,2376.1944940928615,0.353431178103927
22.63333,1757,2367.537127318733,0.3524395081316938
22.64167,1751,2358.8871975932293,0.3512495041650139
22.65,1746,2350.2654607891045,0.3502578341927806
22.65833,1740,2341.6615471204236,0.3490678302261008
22.66667,1735,2333.0651723055958,0.3480761602538675
22.675,1729,2324.4969634690815,0.3468861562871876
22.68333,1722,2315.9466146952113,0.3454978183260611
22.69167,1717,2307.4039057472028,0.34450614835382787
22.7,1713,2298.8893347267053,0.34371281237604123
22.70833,1707,2290.3926597135223,0.3425228084093614
22.71667,1702,2281.903724636239,0.3415311384371281
22.725,1696,2273.442898306391,0.3403411344704482
22.73333,1691,2265.0000029210782,0.339349464498215
22.74167,1686,2256.5649466913987,0.33835779452598175
22.75,1680,2248.1579688787992,0.33716779055930185
22.75833,1674,2239.7689559161468,0.33597778659262195
22.76667,1669,2231.3878804104384,0.33498611662038874
22.775,1663,2223.0348518208657,0.33379611265370884
22.78333,1658,2214.699820930797,0.33280444268147563
22.79167,1653,2206.3728248530356,0.33181277270924237
22.8,1647,2198.0738429998105,0.33062276874256247
22.80833,1642,2189.792890616373,0.32963109877032926
22.81667,1637,2181.520069427283,0.328639428798096
22.825,1630,2173.2752285613064,0.32725109083696946
22.83333,1625,2165.048447832926,0.3262594208647362
22.84167,1621,2156.8298936808233,0.3254660848869496
22.85,1615,2148.639284721722,0.3242760809202697
22.85833,1610,2140.466765443135,0.3232844109480365
22.86667,1605,2132.302567096067,0.32229274097580324
22.875,1600,2124.166277565064,0.32130107100357
22.88333,1595,2116.048106110367,0.32030940103133676
22.89167,1590,2107.938348889786,0.31931773105910355
22.9,1585,2099.8564628437452,0.3183260610868703
22.90833,1578,2091.792722101159,0.31693772312574375
22.91667,1573,2083.737487816855,0.3159460531535105
22.925,1568,2075.7100857840273,0.3149543831812773
22.93333,1564,2067.70085509202,0.3141610472034907
22.94167,1559,2059.7002219788687,0.31316937723125743
22.95,1554,2051.7273808960167,0.3121777072590242
22.95833,1549,2043.7727359809035,0.31118603728679095
22.96667,1544,2035.826778636801,0.31019436731455774
22.975,1541,2027.9085717877274,0.3095993653312178
22.98333,1535,2020.0085847028668,0.3084093613645379
22.99167,1529,2012.1173740283016,0.307219357397858
23.0,1524,2004.2538709841729,0.30622768742562473
23.00833,1519,1996.408610050588,0.3052360174533915
23.01667,1514,1988.5722131898883,0.30424434748115825
23.025,1509,1980.7634797508165,0.30325267750892504
23.03333,1504,1972.9730094994782,0.3022610075366918
23.04167,1499,1965.1914897833042,0.30126933756445856
23.05,1495,1957.4375879216764,0.300476001586672
23.05833,1490,1949.7019690372135,0.2994843316144387
23.06667,1485,1941.9753859268908,0.29849266164220545
23.075,1481,1934.2763737321143,0.29769932566441887
23.08333,1476,1926.5956629981845,0.29670765569218566
23.09167,1470,1918.9240720315204,0.29551765172550576
23.1,1465,1911.2800036565554,0.2945259817532725
23.10833,1461,1903.6542539027807,0.2937326457754859
23.11667,1457,1896.0377066414858,0.29293930979769933
23.125,1452,1888.4486322507303,0.29194763982546607
23.13333,1447,1880.8778923013253,0.29095596985323285
23.14167,1442,1873.3164362799391,0.2899642998809996
23.15,1437,1865.7824019989373,0.2889726299087664
23.15833,1432,1858.2667166227468,0.2879809599365331
23.16667,1428,1850.7603952994482,0.28718762395874653
23.175,1423,1843.281443166109,0.28619595398651326
23.18333,1418,1835.8208530285192,0.28520428401428005
23.19167,1413,1828.3697057373336,0.2842126140420468
23.2,1409,1820.9458736548381,0.2834192780642602
23.20833,1405,1813.5404152712033,0.2826259420864736
23.21667,1400,1806.1444771759116,0.28163427211424036
23.225,1395,1798.775798867299,0.28064260214200715
23.23333,1391,1791.4255045579907,0.27984926616422057
23.24167,1386,1784.0848066078247,0.2788575961919873
23.25,1382,1776.7713115721688,0.2780642602142007
23.25833,1377,1769.4762094194232,0.27707259024196745
23.26667,1371,1762.190778306316,0.2758825862752876
23.275,1367,1754.9324917766908,0.275089250297501
23.28333,1362,1747.6926055830415,0.27409758032526776
23.29167,1358,1740.4624637005813,0.2733042443474812
23.3,1353,1733.2594066035583,0.2723125743752479
23.30833,1350,1726.0747558520134,0.27171757239190797
23.31667,1346,1718.8999212561425,0.2709242364141214
23.325,1342,1711.75211017318,0.2701309004363348
23.33333,1338,1704.6227099890375,0.2693375644585482
23.34167,1333,1697.5031963604695,0.26834589448631496
23.35,1327,1690.4106434908065,0.26715589051963506
23.35833,1323,1683.3365046053036,0.2663625545418485
23.36667,1318,1676.2723212135404,0.2653708845696152
23.375,1314,1669.2350343390071,0.26457754859182864
23.38333,1310,1662.2161630545288,0.26378421261404206
23.39167,1307,1655.207314723753,0.2631892106307021
23.4,1302,1648.2252971751932,0.26219754065846884
23.40833,1297,1641.2616953323238,0.26120587068623563
23.41667,1293,1634.3081824089863,0.26041253470844905
23.425,1289,1627.3814330343723,0.2596191987306624
23.43333,1285,1620.473097980703,0.25882586275287583
23.44167,1281,1613.5749163027467,0.25803252677508925
23.45,1277,1606.7034294371958,0.2572391907973027
23.45833,1273,1599.850353997742,0.25644585481951604
23.46667,1268,1593.0074948656904,0.25545418484728283
23.475,1264,1586.1912603030844,0.25466084886949625
23.48333,1260,1579.393432752629,0.2538675128917096
23.49167,1255,1572.6058829024328,0.2528758429194764
23.5,1252,1565.8448858688762,0.25228084093613645
23.50833,1248,1559.1022899059028,0.2514875049583499
23.51667,1243,1552.370031483463,0.2504958349861166
23.525,1238,1545.6642526124374,0.24950416501388337
23.53333,1233,1538.9768673349515,0.24851249504165013
23.54167,1230,1532.2998778724605,0.2479174930583102
23.55,1226,1525.6492931817895,0.2471241570805236
23.55833,1222,1519.0170930648637,0.24633082110273702
23.56667,1218,1512.3953454589155,0.2455374851249504
23.575,1213,1505.799926329472,0.24454581515271717
23.58333,1210,1499.2228812045803,0.24395081316937722
23.59167,1206,1492.6563436960525,0.24315747719159064
23.6,1202,1486.1160568522866,0.24236414121380404
23.60833,1198,1479.594131888275,0.24157080523601746
23.61667,1194,1473.082768043975,0.24077746925823085
23.625,1190,1466.597575536131,0.23998413328044427
23.63333,1186,1460.1307312221982,0.2391907973026577
23.64167,1182,1453.674499918268,0.23839746132487108
23.65,1178,1447.2443591064684,0.2376041253470845
23.65833,1174,1440.8325512367503,0.2368107893692979
23.66667,1170,1434.4314066439408,0.2360174533915113
23.675,1167,1428.0562701839917,0.23542245140817136
23.68333,1163,1421.6994498439421,0.23462911543038475
23.69167,1159,1415.353341414529,0.23383577945259817
23.7,1155,1409.0331572454872,0.2330424434748116
23.70833,1153,1402.7312708000973,0.23264577548591828
23.71667,1149,1396.440143256684,0.2318524395081317
23.725,1145,1390.1748545902603,0.2310591035303451
23.73333,1141,1383.9278436740785,0.2302657675525585
23.74167,1137,1377.691637000148,0.22947243157477193
23.75,1133,1371.481182311866,0.22867909559698532
23.75833,1129,1365.2889838206195,0.22788575961919874
23.76667,1125,1359.107633252833,0.22709242364141213
23.775,1121,1352.9519462749138,0.22629908766362555
23.78333,1118,1346.8144923591083,0.2257040856802856
23.79167,1114,1340.6879283814105,0.224910749702499
23.8,1110,1334.5869380974957,0.22411741372471242
23.80833,1106,1328.5041561576882,0.22332407774692584
23.81667,1102,1322.4323044972089,0.22253074176913923
23.825,1098,1316.3859351388353,0.22173740579135265
23.83333,1094,1310.3577478226484,0.22094406981356604
23.84167,1090,1304.3405294472855,0.22015073383577946
23.85,1087,1298.3487004920814,0.2195557318524395
23.85833,1083,1292.3750256930728,0.2187623958746529
23.86667,1079,1286.4123568109167,0.21796905989686632
23.875,1076,1280.4749829826067,0.21737405791352638
23.88333,1071,1274.5557338408007,0.21638238794129314
23.89167,1067,1268.6475259013368,0.21558905196350656
23.9,1064,1262.7645171715005,0.2149940499801666
23.90833,1060,1256.8996020757413,0.21420071400238
23.91667,1057,1251.0457617726738,0.21360571201904005
23.925,1053,1245.2170233642169,0.21281237604125347
23.93333,1050,1239.4063459562099,0.21221737405791352
23.94167,1046,1233.606775232215,0.21142403808012694
23.95,1043,1227.8322076245984,0.210829036096787
23.95833,1040,1222.0756668047604,0.21023403411344704
23.96667,1036,1216.3302628578385,0.20944069813566046
23.975,1033,1210.6097617940566,0.20884569615232051
23.98333,1030,1204.9072517290574,0.20825069416898057
23.99167,1026,1199.215907020657,0.20745735819119396
24.0,1023,1193.5493635159369,0.20686235620785404
24.00833,1019,1187.900773647928,0.20606902023006743
24.01667,1016,1182.2633759127973,0.20547401824672748
24.025,1012,1176.6506762650004,0.2046806822689409
24.03333,1009,1171.0558913226448,0.20408568028560095
24.04167,1006,1165.4723235804165,0.203490678302261
24.05,1003,1159.913349382175,0.20289567631892105
24.05833,999,1154.372249393284,0.20210234034113447
24.06667,996,1148.8423899617505,0.20150733835779452
24.075,992,1143.3370181142498,0.20071400238000794
24.08333,989,1137.8494784201991,0.200119000396668
24.09167,986,1132.3732009302137,0.19952399841332805
24.1,983,1126.9213036587175,0.1989289964299881
24.10833,980,1121.4871949304888,0.19833399444664815
24.11667,977,1116.0643683426833,0.1977389924633082
24.125,974,1110.6658132137168,0.19714399047996828
24.13333,970,1105.2850014696137,0.19635065450218167
24.14167,967,1099.9154900926483,0.19575565251884172
24.15,964,1094.570140032807,0.19516065053550177
24.15833,960,1089.2424866578922,0.1943673145577152
24.16667,957,1083.9261501683934,0.19377231257437524
24.175,955,1078.633863484864,0.19337564458548195
24.18333,952,1073.359225251917,0.192780642602142
24.19167,949,1068.0959187161823,0.19218564061880206
24.2,946,1062.856549118784,0.1915906386354621
24.20833,944,1057.6347782110674,0.19119397064656882
24.21667,941,1052.4243521081587,0.19059896866322887
24.225,939,1047.2377487332012,0.19020230067433558
24.23333,936,1042.0686927686115,0.18960729869099563
24.24167,933,1036.9109930152867,0.18901229670765568
24.25,930,1031.777000450794,0.18841729472431576
24.25833,927,1026.6605025078084,0.1878222927409758
24.26667,924,1021.555370484938,0.18722729075763586
24.275,920,1016.4738287976726,0.18643395477984925
24.28333,917,1011.4097274427833,0.18583895279650933
24.29167,915,1006.3570000233534,0.18544228480761601
24.3,912,1001.327744787242,0.1848472828242761
24.30833,909,996.3158741039902,0.18425228084093614
24.31667,906,991.3153836826702,0.1836572788575962
24.325,903,986.3382460089009,0.18306227687425625
24.33333,900,981.3784356284291,0.1824672748909163
24.34167,898,976.4300101526829,0.182070606902023
24.35,896,971.5048167213012,0.18167393891312972
24.35833,894,966.5968918544694,0.18127727092423643
24.36667,891,961.7003548572637,0.18068226894089648
24.375,889,956.8269279502566,0.18028560095200316
24.38333,886,951.9707094212441,0.17969059896866324
24.39167,884,947.1258800550918,0.17929393097976992
24.4,881,942.3040375910157,0.17869892899643
24.40833,879,937.499341872416,0.17830226100753668
24.41667,877,932.7060349451243,0.1779055930186434
24.425,874,927.935590515152,0.17731059103530344
24.43333,871,923.1822297645543,0.1767155890519635
24.44167,869,918.4402557762548,0.1763189210630702
24.45,866,913.7210186818143,0.17572391907973026
24.45833,864,909.0188007798315,0.17532725109083697
24.46667,861,904.3279659615528,0.17473224910749702
24.475,859,899.6597412531779,0.17433558111860373
24.48333,856,895.008469842904,0.17374057913526378
24.49167,853,890.3685761965312,0.17314557715192383
24.5,850,885.7511647143657,0.1725505751685839
24.50833,848,881.1506392422007,0.1721539071796906
24.51667,846,876.5614845819088,0.1717572391907973
24.525,844,871.9946829974087,0.171360571201904
24.53333,841,867.4446987553846,0.17076556921856406
24.54167,840,862.9060767503049,0.1705672352241174
24.55,838,858.3896776094828,0.1701705672352241
24.55833,835,853.8900257787639,0.16957556525188416
24.56667,833,849.4017259971597,0.16917889726299087
24.575,830,844.935517764991,0.16858389527965092
24.58333,829,840.485985460924,0.1683855612852043
24.59167,826,836.0477934156,0.16779055930186434
24.6,824,831.6315605219403,0.16739389131297105
24.60833,821,827.2319308402507,0.1667988893296311
24.61667,817,822.8436280353162,0.1660055533518445
24.625,815,818.4771509219613,0.1656088853629512
24.63333,812,814.1272029863209,0.16501388337961126
24.64167,810,809.7885669652178,0.16461721539071797
24.65,807,805.4716221343137,0.16402221340737802
24.65833,805,801.1711311451479,0.16362554541848473
24.66667,802,796.8819355399467,0.16303054343514478
24.675,800,792.6142956036617,0.1626338754462515
24.68333,797,788.3630328882182,0.16203887346291154
24.69167,794,784.1230474701263,0.1614438714795716
24.7,792,779.9044812014711,0.1610472034906783
24.70833,789,775.7022142650709,0.16045220150733835
24.71667,786,771.5112049961552,0.1598571995239984
24.725,784,767.3414773810637,0.15946053153510512
24.73333,781,763.1879699595441,0.15886552955176517
24.74167,778,759.0456990456519,0.15827052756842522
24.75,775,754.9245713362086,0.1576755255850853
24.75833,773,750.8195834495627,0.15727885759619198
24.76667,770,746.7258093943509,0.15668385561285203
24.775,767,742.653039163143,0.1560888536295121
24.78333,765,738.5963271702133,0.1556921856406188
24.79167,762,734.5508048303366,0.15509718365727887
24.8,760,730.5261460259337,0.15470051566838555
24.80833,758,726.5174626802923,0.15430384767949226
24.81667,755,722.5199433216571,0.1537088456961523
24.825,753,718.5431463251849,0.15331217770725902
24.83333,751,714.5822408320148,0.15291550971836573
24.84167,748,710.6324721871434,0.15232050773502578
24.85,744,706.7032838698888,0.1515271717572392
24.85833,741,702.7899019439636,0.15093216977389926
24.86667,739,698.8876282703378,0.15053550178500594
24.875,737,695.0057920523623,0.15013883379611265
24.88333,734,691.1396759770179,0.1495438318127727
24.89167,732,687.2846381164576,0.1491471638238794
24.9,729,683.4498940262876,0.14855216184053946
24.90833,726,679.6307827133679,0.1479571598571995
24.91667,724,675.8227181524201,0.14756049186830622
24.925,721,672.0348028875848,0.14696548988496627
24.93333,719,668.2624319383871,0.14656882189607298
24.94167,716,664.5010748695817,0.14597381991273303
24.95,713,660.7597218581991,0.1453788179293931
24.95833,712,657.0338236252817,0.14518048393494645
24.96667,709,653.3189050093624,0.1445854819516065
24.975,706,649.6238444725635,0.14399047996826655
24.98333,704,645.9441481225183,0.14359381197937326
24.99167,701,642.2753957515811,0.14299880999603332
