R.Time (min),Intensity,MW_PEG,normalized RI
10.0,1,3637717.237636603,0.05107327905255366
10.00833,-3,3533995.544778615,0.04811250925240563
10.01667,-3,3433754.5975015084,0.04811250925240563
10.025,7,3337089.5989268166,0.05551443375277572
10.03333,9,3243739.7581117214,0.05699481865284974
10.04167,10,3153466.4644864174,0.05773501110288675
10.05,-8,3066359.7787454887,0.04441154700222058
10.05833,-57,2982188.9191827127,0.008142116950407105
10.06667,-65,2900742.5802896717,0.0022205773501110288
10.075,-54,2822105.7703741393,0.010362694300518135
10.08333,-37,2746073.816605077,0.0229459659511473
10.09167,-5,2672459.184426488,0.046632124352331605
10.1,22,2601341.9726900174,0.06661732050333087
10.10833,38,2532540.274221624,0.07846039970392302
10.11667,43,2465887.294418078,0.08216136195410807
10.125,43,2401458.402048187,0.08216136195410807
10.13333,56,2339091.5835440187,0.0917838638045892
10.14167,77,2278638.178850015,0.1073279052553664
10.15,26,2220169.029939126,0.0695780903034789
10.15833,-10,2163539.5440313243,0.04293116210214656
10.16667,-14,2108616.95128696,0.03997039230199852
10.175,-7,2055467.7843121998,0.04515173945225759
10.18333,0,2003962.7375700886,0.050333086602516654
10.19167,5,1953982.9938361829,0.0540340488527017
10.2,7,1905591.000810217,0.05551443375277572
10.20833,8,1858670.8953934254,0.056254626202812734
10.21667,6,1813116.1367122103,0.05477424130273871
10.225,5,1768985.3135756615,0.0540340488527017
10.23333,3,1726174.4068882759,0.052553663952627686
10.24167,2,1684587.6989519391,0.05181347150259067
10.25,0,1644280.143249694,0.050333086602516654
10.25833,-1,1605158.1769064786,0.049592894152479645
10.26667,-2,1567135.643035731,0.04885270170244264
10.275,-3,1530264.0780618046,0.04811250925240563
10.28333,-4,1494459.1680203117,0.047372316802368614
10.29167,-4,1459643.2180115515,0.047372316802368614
10.3,-5,1425864.558377061,0.046632124352331605
10.30833,-5,1393047.0716646416,0.046632124352331605
10.31667,-6,1361120.5666382757,0.0458919319022946
10.325,-7,1330130.369835422,0.04515173945225759
10.33333,-8,1300007.6412109307,0.04441154700222058
10.34167,-9,1270688.8557782948,0.043671354552183565
10.35,-9,1242216.5290282127,0.043671354552183565
10.35833,-10,1214528.2940647646,0.04293116210214656
10.36667,-10,1187566.5590259058,0.04293116210214656
10.375,-10,1161371.2110885307,0.04293116210214656
10.38333,-10,1135885.6514710768,0.04293116210214656
10.39167,-11,1111057.5783921203,0.04219096965210955
10.4,-11,1086924.4232564224,0.04219096965210955
10.40833,-12,1063434.7361981992,0.04145077720207254
10.41667,-12,1040540.9404746455,0.04145077720207254
10.425,-13,1018278.1740829336,0.04071058475203553
10.43333,-13,996599.5912872679,0.04071058475203553
10.44167,-13,975461.8429722912,0.04071058475203553
10.45,-13,954897.9261299614,0.04071058475203553
10.45833,-13,934865.1189799928,0.04071058475203553
10.46667,-13,915323.8614040365,0.04071058475203553
10.475,-13,896305.1520919566,0.04071058475203553
10.48333,-13,877769.969278993,0.04071058475203553
10.49167,-14,859682.1543667923,0.03997039230199852
10.5,-15,842070.8411464208,0.03923019985196151
10.50833,-15,824900.3329179233,0.03923019985196151
10.51667,-14,808137.5297490822,0.03997039230199852
10.525,-15,791809.825024804,0.03923019985196151
10.53333,-15,775884.5149714015,0.03923019985196151
10.54167,-16,760331.254421111,0.0384900074019245
10.55,-16,745175.8124284344,0.0384900074019245
10.55833,-15,730388.1834005613,0.03923019985196151
10.56667,-16,715940.5071499695,0.0384900074019245
10.575,-16,701857.0364951143,0.0384900074019245
10.58333,-16,688110.2020818763,0.0384900074019245
10.59167,-16,674674.3887915286,0.0384900074019245
10.6,-16,661572.4338020956,0.0384900074019245
10.60833,-16,648778.9708217747,0.0384900074019245
10.61667,-17,636270.4161409326,0.03774981495188749
10.625,-17,624068.2848557145,0.03774981495188749
10.63333,-17,612149.2058478075,0.03774981495188749
10.64167,-16,600491.4362216415,0.0384900074019245
10.65,-17,589115.2559757858,0.03774981495188749
10.65833,-16,577999.1035372175,0.0384900074019245
10.66667,-16,567122.9065598075,0.0384900074019245
10.675,-17,556505.7907808053,0.03774981495188749
10.68333,-16,546127.8381762065,0.0384900074019245
10.69167,-17,535970.4946077173,0.03774981495188749
10.7,-17,526051.8066642013,0.03774981495188749
10.70833,-17,516353.3512110599,0.03774981495188749
10.71667,-17,506857.9558249049,0.03774981495188749
10.725,-18,497582.6577235786,0.037009622501850484
10.73333,-17,488510.39533517265,0.03774981495188749
10.74167,-17,479625.25547349453,0.03774981495188749
10.75,-17,470943.33081668196,0.03774981495188749
10.75833,-18,462448.80161328556,0.037009622501850484
10.76667,-18,454126.9038493567,0.037009622501850484
10.775,-19,445992.84590379545,0.03626943005181347
10.78333,-19,438031.94214733905,0.03626943005181347
10.79167,-20,430230.4787063806,0.03552923760177646
10.8,-20,422602.83562573604,0.03552923760177646
10.80833,-21,415135.3644062891,0.03478904515173945
10.81667,-20,407815.3120834902,0.03552923760177646
10.825,-21,400656.2823770789,0.03478904515173945
10.83333,-20,393645.57645553915,0.03552923760177646
10.84167,-20,386771.3217378706,0.03552923760177646
10.85,-19,380046.3939781201,0.03626943005181347
10.85833,-19,373458.9650164879,0.03626943005181347
10.86667,-18,366997.96992188145,0.037009622501850484
10.875,-18,360675.6014337449,0.037009622501850484
10.88333,-17,354480.8306474717,0.03774981495188749
10.89167,-18,348403.33446915756,0.037009622501850484
10.9,-18,342454.6644425937,0.037009622501850484
10.90833,-18,336624.5262580807,0.037009622501850484
10.91667,-17,330903.279052049,0.03774981495188749
10.925,-17,325301.8720725989,0.03774981495188749
10.93333,-17,319810.68699638965,0.03774981495188749
10.94167,-17,314420.7111241168,0.03774981495188749
10.95,-17,309142.3276258491,0.03774981495188749
10.95833,-17,303966.5409645698,0.03774981495188749
10.96667,-18,298884.9175096064,0.037009622501850484
10.975,-17,293907.3080779431,0.03774981495188749
10.98333,-17,289025.2915715576,0.03774981495188749
10.99167,-18,284230.96880052926,0.037009622501850484
11.0,-17,279533.6896365394,0.03774981495188749
11.00833,-18,274925.5634441028,0.037009622501850484
11.01667,-19,270399.18484093505,0.03626943005181347
11.025,-20,265963.4320335352,0.03552923760177646
11.03333,-21,261610.90478361852,0.03478904515173945
11.04167,-21,257334.65449269224,0.03478904515173945
11.05,-22,253143.11500199942,0.034048852701702444
11.05833,-21,249029.33993679783,0.03478904515173945
11.06667,-22,244986.80369695416,0.034048852701702444
11.075,-22,241023.5212278194,0.034048852701702444
11.08333,-22,237132.96666699555,0.034048852701702444
11.09167,-22,233309.0065487555,0.034048852701702444
11.1,-22,229559.26070326922,0.034048852701702444
11.10833,-21,225877.5932856591,0.03478904515173945
11.11667,-21,222258.2347494152,0.03478904515173945
11.125,-20,218708.43201091967,0.03552923760177646
11.13333,-20,215222.41135225364,0.03552923760177646
11.14167,-20,211794.74130218403,0.03552923760177646
11.15,-20,208432.31661983524,0.03552923760177646
11.15833,-20,205129.7001544204,0.03552923760177646
11.16667,-20,201881.77483579406,0.03552923760177646
11.175,-20,198695.10266468802,0.03552923760177646
11.18333,-20,195564.55962721808,0.03552923760177646
11.19167,-20,192485.32132377938,0.03552923760177646
11.2,-19,189463.63515267178,0.03626943005181347
11.20833,-19,186494.66872208257,0.03626943005181347
11.21667,-20,183573.87034980243,0.03552923760177646
11.225,-20,180707.18982578407,0.03552923760177646
11.23333,-20,177890.06661062982,0.03552923760177646
11.24167,-19,175118.20338940938,0.03626943005181347
11.25,-19,172397.26826606598,0.03626943005181347
11.25833,-18,169722.95436464515,0.037009622501850484
11.26667,-19,167091.20185147563,0.03626943005181347
11.275,-19,164507.41206379415,0.03626943005181347
11.28333,-18,161967.51504368542,0.037009622501850484
11.29167,-18,159467.67287773025,0.037009622501850484
11.3,-17,157013.03413273604,0.03774981495188749
11.30833,-17,154599.75032987917,0.03774981495188749
11.31667,-17,152224.19112469014,0.03774981495188749
11.325,-17,149891.26544973653,0.03774981495188749
11.33333,-16,147597.33205955976,0.0384900074019245
11.34167,-17,145338.95492836932,0.03774981495188749
11.35,-18,143120.81569252783,0.037009622501850484
11.35833,-17,140939.4671812081,0.03774981495188749
11.36667,-17,138791.65544214117,0.03774981495188749
11.375,-17,136681.8464095886,0.03774981495188749
11.38333,-17,134606.77482205638,0.03774981495188749
11.39167,-17,132563.35747285982,0.03774981495188749
11.4,-17,130555.8554976241,0.03774981495188749
11.40833,-16,128581.17428457277,0.0384900074019245
11.41667,-16,126636.39088507993,0.0384900074019245
11.425,-17,124725.57189606426,0.03774981495188749
11.43333,-16,122845.78292518754,0.0384900074019245
11.44167,-17,120994.25156021744,0.03774981495188749
11.45,-17,119174.85952096745,0.03774981495188749
11.45833,-16,117384.82296474883,0.0384900074019245
11.46667,-17,115621.51099606094,0.03774981495188749
11.475,-16,113888.62956112438,0.0384900074019245
11.48333,-17,112183.53639132978,0.03774981495188749
11.49167,-17,110503.73373221258,0.03774981495188749
11.5,-17,108852.76034272193,0.03774981495188749
11.50833,-17,107228.10718908717,0.03774981495188749
11.51667,-17,105627.40187284267,0.03774981495188749
11.525,-16,104054.02406587076,0.0384900074019245
11.53333,-17,102505.5902158045,0.03774981495188749
11.54167,-16,100979.84603848404,0.0384900074019245
11.55,-16,99480.019765718,0.0384900074019245
11.55833,-15,98003.84611208935,0.03923019985196151
11.56667,-16,96549.18216226765,0.0384900074019245
11.575,-16,95119.11193404249,0.0384900074019245
11.58333,-15,93711.48168758031,0.03923019985196151
11.59167,-15,92324.25359019112,0.03923019985196151
11.6,-16,90960.37427849865,0.0384900074019245
11.60833,-15,89617.79528960181,0.03923019985196151
11.61667,-16,88294.57800990496,0.0384900074019245
11.625,-15,86993.53815794077,0.03923019985196151
11.63333,-15,85712.72669947751,0.03923019985196151
11.64167,-15,84450.2987651996,0.03923019985196151
11.65,-15,83208.94527299129,0.03923019985196151
11.65833,-14,81986.81115526783,0.03997039230199852
11.66667,-14,80782.14016987848,0.03997039230199852
11.675,-13,79597.50423023611,0.04071058475203553
11.68333,-14,78431.13712843429,0.03997039230199852
11.69167,-14,77281.36646382321,0.03997039230199852
11.7,-14,76150.65063827121,0.03997039230199852
11.70833,-13,75037.30752647344,0.04071058475203553
11.71667,-13,73939.74408840506,0.04071058475203553
11.725,-13,72860.31042503494,0.04071058475203553
11.73333,-13,71797.40401878735,0.04071058475203553
11.74167,-13,70749.50699313512,0.04071058475203553
11.75,-12,69718.86609167952,0.04145077720207254
11.75833,-11,68703.95421207507,0.04219096965210955
11.76667,-11,67703.32470537256,0.04219096965210955
11.775,-11,66719.12565174859,0.04219096965210955
11.78333,-11,65749.9014307637,0.04219096965210955
11.79167,-10,64794.27292823283,0.04293116210214656
11.8,-10,63854.294019786386,0.04293116210214656
11.80833,-9,62928.57687578472,0.043671354552183565
11.81667,-9,62015.80644622097,0.043671354552183565
11.825,-9,61117.94664269519,0.043671354552183565
11.83333,-9,60233.673956898936,0.043671354552183565
11.84167,-8,59361.73414281422,0.04441154700222058
11.85,-8,58504.00517895239,0.04441154700222058
11.85833,-6,57659.224617217544,0.0458919319022946
11.86667,-5,56826.1959483593,0.046632124352331605
11.875,-4,56006.71505350151,0.047372316802368614
11.88333,-3,55199.577476531085,0.04811250925240563
11.89167,-2,54403.64155700275,0.04885270170244264
11.9,-1,53620.62473075233,0.049592894152479645
11.90833,1,52849.37764341179,0.05107327905255366
11.91667,2,52088.810762852634,0.05181347150259067
11.925,4,51340.56655808636,0.053293856402664694
11.93333,5,50603.54805335539,0.0540340488527017
11.94167,8,49876.71527973067,0.056254626202812734
11.95,10,49161.63905297329,0.05773501110288675
11.95833,12,48457.272208327355,0.05921539600296077
11.96667,15,47762.621919780584,0.0614359733530718
11.975,18,47079.19050936504,0.06365655070318282
11.98333,20,46405.978199182835,0.06513693560325684
11.99167,23,45742.03702149252,0.06735751295336788
12.0,24,45088.80381701284,0.06809770540340489
12.00833,27,44445.323906128324,0.07031828275351591
12.01667,30,43810.692020116105,0.07253886010362694
12.025,34,43186.28239286985,0.07549962990377498
12.03333,37,42571.18327903864,0.07772020725388601
12.04167,40,41964.53006891931,0.07994078460399703
12.05,44,41367.63713172271,0.08290155440414508
12.05833,47,40779.6336115068,0.0851221317542561
12.06667,51,40199.693625505824,0.08808290155440414
12.075,55,39629.07429714849,0.09104367135455219
12.08333,59,39066.943723778306,0.09400444115470022
12.09167,64,38512.512922189686,0.09770540340488527
12.1,70,37966.984270407534,0.10214655810510732
12.10833,75,37429.56298585037,0.10584752035529238
12.11667,81,36899.495253154964,0.11028867505551443
12.125,86,36377.93109356972,0.11398963730569948
12.13333,92,35864.11110763958,0.11843079200592153
12.14167,98,35357.315007440644,0.1228719467061436
12.15,105,34858.64273862726,0.12805329385640266
12.15833,112,34367.36863912003,0.13323464100666174
12.16667,119,33882.804391399804,0.1384159881569208
12.175,127,33406.00204726509,0.14433752775721687
12.18333,134,32936.26811953527,0.14951887490747595
12.19167,142,32472.944784949384,0.15544041450777202
12.2,150,32017.038285839986,0.16136195410806808
12.20833,160,31567.885828105016,0.1687638786084382
12.21667,169,31124.85868021911,0.17542561065877127
12.225,180,30688.91926882615,0.1835677276091784
12.23333,191,30259.434084966037,0.19170984455958548
12.24167,204,29835.80215727984,0.20133234641006661
12.25,217,29418.94400291892,0.21095484826054775
12.25833,232,29008.25406084284,0.22205773501110287
12.26667,247,28603.157854499354,0.23316062176165803
12.275,263,28204.53581442971,0.2450037009622502
12.28333,279,27811.80905625725,0.25684678016284235
12.29167,297,27424.42839508943,0.2701702442635085
12.3,315,27043.235918991646,0.2834937083641747
12.30833,335,26667.678211507922,0.29829755736491487
12.31667,357,26297.230234449467,0.3145817912657291
12.325,379,25932.69740206602,0.3308660251665433
12.33333,402,25573.550615772507,0.3478904515173945
12.34167,427,25219.287894892474,0.36639526276831974
12.35,454,24870.679576486575,0.38638045891931905
12.35833,482,24527.219784782144,0.4071058475203553
12.36667,509,24188.4285598466,0.42709104367135453
12.375,539,23855.042689117967,0.44929681717246484
12.38333,569,23526.57847750117,0.47150259067357514
12.39167,600,23202.576998074797,0.4944485566247224
12.4,632,22883.742950665044,0.5181347150259067
12.40833,665,22569.613827634537,0.542561065877128
12.41667,698,22259.750794597203,0.5669874167283494
12.425,733,21954.827862701644,0.5928941524796447
12.43333,767,21654.40276581815,0.6180606957809031
12.44167,801,21358.05586484816,0.6432272390821614
12.45,835,21066.43182178067,0.6683937823834197
12.45833,869,20779.107709746026,0.6935603256846781
12.46667,902,20495.682230466635,0.7179866765358993
12.475,935,20216.771978074947,0.7424130273871207
12.48333,967,19941.972505077767,0.7660991857883049
12.49167,999,19670.900038576932,0.7897853441894893
12.5,1030,19404.1443315781,0.8127313101406366
12.50833,1060,19141.318595800025,0.8349370836417469
12.51667,1089,18882.055805849093,0.8564026646928201
12.525,1116,18626.920047843298,0.8763878608438194
12.53333,1141,18375.541409840684,0.8948926720947447
12.54167,1164,18127.568871904157,0.9119170984455959
12.55,1185,17883.541977225334,0.927461139896373
12.55833,1204,17643.10694317224,0.9415247964470762
12.56667,1221,17405.928046998295,0.9541080680977054
12.575,1237,17172.521364288466,0.9659511472982976
12.58333,1250,16942.54852911024,0.9755736491487786
12.59167,1261,16715.688439450005,0.9837157660991858
12.6,1270,16492.43473308259,0.9903774981495189
12.60833,1277,16272.463779572532,0.9955588452997779
12.61667,1280,16055.468452287596,0.997779422649889
12.625,1283,15841.920936360639,1.0
12.63333,1283,15631.511686714894,1.0
12.64167,1279,15423.946935591184,0.997039230199852
12.65,1275,15219.678358215953,0.9940784603997039
12.65833,1267,15018.409874146406,0.9881569207994079
12.66667,1258,14819.860485112538,0.9814951887490747
12.675,1248,14624.462259209664,0.9740932642487047
12.68333,1235,14431.93198713491,0.9644707623982235
12.69167,1220,14242.000877601238,0.9533678756476683
12.7,1204,14055.082254807516,0.9415247964470762
12.70833,1187,13870.905213925953,0.9289415247964471
12.71667,1167,13689.21263296837,0.9141376757957069
12.725,1148,13510.399918445979,0.9000740192450037
12.73333,1127,13334.207928414859,0.8845299777942265
12.74167,1106,13160.390696216786,0.8689859363434493
12.75,1083,12989.326501506264,0.8519615099925981
12.75833,1059,12820.76744734361,0.8341968911917098
12.76667,1035,12654.47823139961,0.8164322723908216
12.775,1010,12490.820762710511,0.7979274611398963
12.78333,985,12329.557894589254,0.7794226498889711
12.79167,959,12170.464519698999,0.7601776461880089
12.8,933,12013.886900065738,0.7409326424870466
12.80833,908,11859.598166236428,0.7224278312361214
12.81667,883,11707.38295706663,0.7039230199851961
12.825,857,11557.57257976657,0.6846780162842339
12.83333,831,11409.949990017341,0.6654330125832717
12.84167,807,11264.309143727902,0.6476683937823834
12.85,782,11120.967055600959,0.6291635825314582
12.85833,758,10979.7160738663,0.6113989637305699
12.86667,733,10840.35906158015,0.5928941524796447
12.875,709,10703.199373999396,0.5751295336787565
12.88333,685,10568.038338694269,0.5573649148778682
12.89167,663,10434.687333661184,0.5410806809770541
12.9,640,10303.436660341622,0.5240562546262029
12.90833,618,10174.096230214835,0.5077720207253886
12.91667,596,10046.48556147434,0.4914877868245744
12.925,576,9920.88248076315,0.47668393782383417
12.93333,555,9797.105105701414,0.46113989637305697
12.94167,535,9674.980735840498,0.4463360473723168
12.95,516,9554.775276990797,0.4322723908216136
12.95833,497,9436.314691413027,0.41820873427091043
12.96667,480,9319.433717222419,0.40562546262028126
12.975,462,9204.386868924339,0.3923019985196151
12.98333,445,9091.007607613492,0.37971872686898595
12.99167,429,8979.137782285017,0.36787564766839376
13.0,413,8869.021022146346,0.3560325684678016
13.00833,398,8760.497956804651,0.3449296817172465
13.01667,383,8653.417232512304,0.3338267949666913
13.025,369,8548.012077177304,0.3234641006661732
13.03333,356,8444.129972684845,0.31384159881569207
13.04167,342,8341.626062849367,0.30347890451517395
13.05,330,8240.723636751381,0.29459659511472985
13.05833,318,8141.276726418642,0.2857142857142857
13.06667,307,8043.146686350445,0.27757216876387864
13.075,296,7946.547309058497,0.2694300518134715
13.08333,286,7851.338887545043,0.26202812731310143
13.09167,275,7757.388712969559,0.2538860103626943
13.1,264,7664.901503712742,0.2457438934122872
13.10833,255,7573.74353729592,0.23908216136195412
13.11667,247,7483.787779384152,0.23316062176165803
13.125,238,7395.230278012012,0.22649888971132495
13.13333,229,7307.943030989118,0.21983715766099185
13.14167,222,7221.804427726404,0.2146558105107328
13.15,215,7137.002231803359,0.20947446336047373
13.15833,207,7053.413908391397,0.20355292376017764
13.16667,200,6970.9230310778785,0.19837157660991858
13.175,193,6889.709447596869,0.19319022945965952
13.18333,187,6809.655848911707,0.18874907475943745
13.19167,180,6730.650763359309,0.1835677276091784
13.2,174,6652.866475276668,0.17912657290895634
13.20833,167,6576.1906701465205,0.17394522575869725
13.21667,162,6500.516611994753,0.1702442635085122
13.225,156,6426.009358218861,0.16580310880829016
13.23333,151,6352.561367902253,0.16210214655810512
13.24167,146,6280.070431091471,0.15840118430792005
13.25,142,6208.694699919618,0.15544041450777202
13.25833,136,6138.3311955982035,0.15099925980754997
13.26667,132,6068.882033959048,0.14803849000740193
13.275,128,6000.498768894008,0.14507772020725387
13.28333,124,5933.082781800148,0.14211695040710584
13.29167,120,5866.540322602589,0.1391561806069578
13.3,116,5801.016640473479,0.13619541080680977
13.30833,113,5736.417283814868,0.13397483345669875
13.31667,109,5672.652453393689,0.13101406365655072
13.325,105,5609.861373967523,0.12805329385640266
13.33333,102,5547.953576259803,0.12583271650629163
13.34167,99,5486.843036714574,0.1236121391561806
13.35,96,5426.66322357184,0.12139156180606958
13.35833,94,5367.327473062849,0.11991117690599556
13.36667,90,5308.753370005183,0.11695040710584752
13.375,88,5251.068881728803,0.1154700222057735
13.38333,85,5194.190981322991,0.11324944485566248
13.39167,82,5138.040701786343,0.11102886750555144
13.4,80,5082.740753893318,0.10954848260547742
13.40833,77,5028.211586092319,0.1073279052553664
13.41667,75,4974.377526567738,0.10584752035529238
13.425,72,4921.356262869281,0.10362694300518134
13.43333,70,4869.0715645542305,0.10214655810510732
13.44167,69,4817.450908575282,0.10140636565507032
13.45,66,4766.607182195055,0.09918578830495929
13.45833,64,4716.4673285328745,0.09770540340488527
13.46667,63,4666.9618334555225,0.09696521095484827
13.475,61,4618.198996873515,0.09548482605477424
13.48333,60,4570.108794356141,0.09474463360473723
13.49167,59,4522.62458698953,0.09400444115470022
13.5,57,4475.850290680419,0.0925240562546262
13.50833,56,4429.718778697751,0.0917838638045892
13.51667,53,4384.1661594448215,0.08956328645447817
13.525,51,4339.292159079969,0.08808290155440414
13.53333,49,4295.032419648955,0.08660251665433012
13.54167,48,4251.325674728424,0.08586232420429311
13.55,46,4208.267646286295,0.0843819393042191
13.55833,44,4165.796621935254,0.08290155440414508
13.56667,42,4123.853843509015,0.08142116950407106
13.575,42,4082.531206108045,0.08142116950407106
13.58333,40,4041.7695251652026,0.07994078460399703
13.59167,40,4001.5124390113347,0.07994078460399703
13.6,39,3961.848185293312,0.07920059215396003
13.60833,38,3922.719994595887,0.07846039970392302
13.61667,37,3884.073794978257,0.07772020725388601
13.625,35,3845.994328463664,0.07623982235381199
13.63333,35,3808.427133129644,0.07623982235381199
13.64167,35,3771.320324667967,0.07623982235381199
13.65,33,3734.755304086128,0.07475943745373798
13.65833,33,3698.6798140226447,0.07475943745373798
13.66667,31,3663.0440601953314,0.07327905255366396
13.675,31,3627.9262503429277,0.07327905255366396
13.68333,30,3593.276233311214,0.07253886010362694
13.69167,30,3559.046211399746,0.07253886010362694
13.7,30,3525.311340388307,0.07253886010362694
13.70833,28,3492.0234811920054,0.07105847520355292
13.71667,27,3459.1367434654735,0.07031828275351591
13.725,25,3426.723366005353,0.0688378978534419
13.73333,24,3394.737131829602,0.06809770540340489
13.74167,24,3363.133972597238,0.06809770540340489
13.75,23,3331.983339125719,0.06735751295336788
13.75833,23,3301.2408505862527,0.06735751295336788
13.76667,22,3270.864178919439,0.06661732050333087
13.775,22,3240.920110461096,0.06661732050333087
13.78333,21,3211.3660181654022,0.06587712805329386
13.79167,20,3182.161236244381,0.06513693560325684
13.8,20,3153.370004479974,0.06513693560325684
13.80833,19,3124.951371025716,0.06439674315321983
13.81667,19,3096.866257581498,0.06439674315321983
13.825,18,3069.176470321349,0.06365655070318282
13.83333,17,3041.842657262183,0.06291635825314582
13.84167,16,3014.8272562609727,0.06217616580310881
13.85,16,2988.1897477614507,0.06217616580310881
13.85833,15,2961.8923077007225,0.0614359733530718
13.86667,15,2935.8988216949456,0.0614359733530718
13.875,14,2910.266547816572,0.06069578090303479
13.88333,14,2884.959121081179,0.06069578090303479
13.89167,14,2859.9418094379694,0.06069578090303479
13.9,13,2835.2697474783904,0.05995558845299778
13.90833,12,2810.907963377873,0.05921539600296077
13.91667,12,2786.823044857892,0.05921539600296077
13.925,13,2763.0680977131847,0.05995558845299778
13.93333,13,2739.609480261352,0.05995558845299778
13.94167,13,2716.4150400582234,0.05995558845299778
13.95,13,2693.5359447359547,0.05995558845299778
13.95833,13,2670.9398224616857,0.05995558845299778
13.96667,12,2648.59572328137,0.05921539600296077
13.975,12,2626.5529635209,0.05921539600296077
13.98333,12,2604.7803834017323,0.05921539600296077
13.99167,10,2583.248180633647,0.05773501110288675
14.0,10,2562.00390338217,0.05773501110288675
14.00833,10,2541.0175487114743,0.05773501110288675
14.01667,9,2520.260409403598,0.05699481865284974
14.025,9,2499.7783452375925,0.05699481865284974
14.03333,8,2479.542457169368,0.056254626202812734
14.04167,9,2459.5250827452064,0.05699481865284974
14.05,8,2439.770469835958,0.056254626202812734
14.05833,8,2420.250772605756,0.056254626202812734
14.06667,8,2400.9393251710517,0.056254626202812734
14.075,8,2381.8788368062674,0.056254626202812734
14.08333,7,2363.0424664338902,0.05551443375277572
14.09167,6,2344.404498472139,0.05477424130273871
14.1,6,2326.0061740708575,0.05477424130273871
14.10833,5,2307.8216103435825,0.0540340488527017
14.11667,5,2289.8259978462615,0.0540340488527017
14.125,5,2272.059177091164,0.0540340488527017
14.13333,6,2254.496178922834,0.05477424130273871
14.14167,5,2237.1130575938355,0.0540340488527017
14.15,6,2219.948317922701,0.05477424130273871
14.15833,5,2202.9778617520224,0.0540340488527017
14.16667,6,2186.1785664556687,0.05477424130273871
14.175,7,2169.587663428124,0.05551443375277572
14.18333,6,2153.1818847036247,0.05477424130273871
14.19167,6,2136.9388917525666,0.05477424130273871
14.2,6,2120.894702550558,0.05477424130273871
14.20833,5,2105.0268400765212,0.0540340488527017
14.21667,4,2089.313712598261,0.053293856402664694
14.225,5,2073.790182263402,0.0540340488527017
14.23333,4,2058.4345254626264,0.053293856402664694
14.24167,4,2043.225861428578,0.053293856402664694
14.25,5,2028.1979519553317,0.0540340488527017
14.25833,5,2013.3297908096588,0.0540340488527017
14.26667,5,1998.6011738757702,0.0540340488527017
14.275,6,1984.0448159750097,0.05477424130273871
14.28333,5,1969.6403937033695,0.0540340488527017
14.29167,5,1955.3683466796117,0.0540340488527017
14.3,6,1941.2603941427797,0.05477424130273871
14.30833,5,1927.296862464278,0.0540340488527017
14.31667,5,1913.4588033262062,0.0540340488527017
14.325,5,1899.7769899969887,0.0540340488527017
14.33333,5,1886.2323668194294,0.0540340488527017
14.34167,5,1872.8065672924304,0.0540340488527017
14.35,5,1859.5294664580458,0.0540340488527017
14.35833,5,1846.3825961918055,0.0540340488527017
14.36667,5,1833.3481427116826,0.0540340488527017
14.375,5,1820.4551289484705,0.0540340488527017
14.38333,5,1807.6856450760079,0.0540340488527017
14.39167,6,1795.0224021785314,0.05477424130273871
14.4,6,1782.4936155335927,0.05477424130273871
14.40833,6,1770.0819056269584,0.05477424130273871
14.41667,7,1757.7704816539854,0.05551443375277572
14.425,7,1745.5867941930867,0.05551443375277572
14.43333,7,1733.5139671563372,0.05551443375277572
14.44167,7,1721.535682233535,0.05551443375277572
14.45,7,1709.6786667778977,0.05551443375277572
14.45833,7,1697.9265223871687,0.05551443375277572
14.46667,6,1686.263378648456,0.05477424130273871
14.475,6,1674.715279796501,0.05477424130273871
14.48333,5,1663.2662804257734,0.0540340488527017
14.49167,5,1651.9009344232215,0.0540340488527017
14.5,4,1640.6446417108446,0.053293856402664694
14.50833,3,1629.4818861879505,0.052553663952627686
14.51667,3,1618.3976234993793,0.052553663952627686
14.525,3,1607.41664671238,0.052553663952627686
14.53333,3,1596.523846369591,0.052553663952627686
14.54167,2,1585.7045582382682,0.05181347150259067
14.55,2,1574.9830048123388,0.05181347150259067
14.55833,2,1564.3444615820595,0.05181347150259067
14.56667,2,1553.7746237268443,0.05181347150259067
14.575,2,1543.297178256957,0.05181347150259067
14.58333,3,1532.8977648312718,0.052553663952627686
14.59167,2,1522.5624182338609,0.05181347150259067
14.6,1,1512.3143239781461,0.05107327905255366
14.60833,0,1502.1394660061612,0.050333086602516654
14.61667,1,1492.024199783619,0.05107327905255366
14.625,0,1481.9912421886665,0.050333086602516654
14.63333,0,1472.026902462236,0.050333086602516654
14.64167,1,1462.1178386587972,0.05107327905255366
14.65,0,1452.2863308666424,0.050333086602516654
14.65833,0,1442.5189954443908,0.050333086602516654
14.66667,0,1432.8027758601029,0.050333086602516654
14.675,0,1423.1595461200689,0.050333086602516654
14.68333,0,1413.5762124553598,0.050333086602516654
14.69167,1,1404.039987267904,0.05107327905255366
14.7,1,1394.572368313467,0.05107327905255366
14.70833,1,1385.1605351711441,0.05107327905255366
14.71667,1,1375.7919535737285,0.05107327905255366
14.725,1,1366.487773807816,0.05107327905255366
14.73333,1,1357.2354331108581,0.05107327905255366
14.74167,0,1348.0226357338013,0.050333086602516654
14.75,1,1338.8702122593595,0.05107327905255366
14.75833,1,1329.765842723532,0.05107327905255366
14.76667,0,1320.697455836859,0.050333086602516654
14.775,-1,1311.6855893110237,0.049592894152479645
14.78333,-1,1302.7181518638506,0.049592894152479645
14.79167,-1,1293.7832833713571,0.049592894152479645
14.8,-1,1284.9012545426037,0.049592894152479645
14.80833,-1,1276.0601894382169,0.049592894152479645
14.81667,-2,1267.2484265531862,0.04885270170244264
14.825,-1,1258.4859945271005,0.049592894152479645
14.83333,-1,1249.761220109682,0.049592894152479645
14.84167,-1,1241.0626286972115,0.049592894152479645
14.85,-1,1232.4100307536107,0.049592894152479645
14.85833,-1,1223.7919438880504,0.049592894152479645
14.86667,0,1215.1970693580145,0.050333086602516654
14.875,-1,1206.645022367214,0.049592894152479645
14.88333,0,1198.1245002998262,0.050333086602516654
14.89167,0,1189.6243699708155,0.050333086602516654
14.9,0,1181.1640732907729,0.050333086602516654
14.90833,0,1172.732477021678,0.050333086602516654
14.91667,0,1164.3186039574769,0.050333086602516654
14.925,0,1155.9417436412668,0.050333086602516654
14.93333,0,1147.5909225584162,0.050333086602516654
14.94167,1,1139.2553106782668,0.05107327905255366
14.95,1,1130.9540650282,0.05107327905255366
14.95833,1,1122.6763628642884,0.05107327905255366
14.96667,1,1114.4115132212175,0.05107327905255366
14.975,1,1106.1785594346431,0.05107327905255366
14.98333,1,1097.9668212941685,0.05107327905255366
14.99167,0,1089.7657395034028,0.050333086602516654
15.0,0,1081.5942613974094,0.050333086602516654
15.00833,-1,1073.4418417749123,0.049592894152479645
15.01667,-1,1065.2980463216654,0.049592894152479645
15.025,0,1057.181742928489,0.050333086602516654
15.03333,0,1049.0825145677106,0.050333086602516654
15.04167,0,1040.990045917051,0.050333086602516654
15.05,0,1032.9231408091603,0.050333086602516654
15.05833,1,1024.871504227254,0.05107327905255366
15.06667,1,1016.8249345795145,0.05107327905255366
15.075,1,1008.802185759977,0.05107327905255366
15.08333,1,1000.7930792938239,0.05107327905255366
15.09167,1,992.7875227117175,0.05107327905255366
15.1,1,984.8042328610263,0.05107327905255366
15.10833,1,976.8331430018567,0.05107327905255366
15.11667,0,968.8642658454218,0.050333086602516654
15.125,1,960.9162927506529,0.05107327905255366
15.13333,2,952.9792645535875,0.05181347150259067
15.14167,3,945.0432958855222,0.052553663952627686
15.15,3,937.1270627917534,0.052553663952627686
15.15833,4,929.2207101686547,0.053293856402664694
15.16667,3,921.3144519692323,0.052553663952627686
15.175,4,913.4269576529731,0.053293856402664694
15.18333,4,905.5484733039892,0.053293856402664694
15.19167,4,897.6693101881597,0.053293856402664694
15.2,4,889.8081384822277,0.053293856402664694
15.20833,4,881.9553031477584,0.053293856402664694
15.21667,5,874.1012114119012,0.0540340488527017
15.225,4,866.2645398955201,0.053293856402664694
15.23333,4,858.4357307528288,0.053293856402664694
15.24167,4,850.6052863674435,0.053293856402664694
15.25,4,842.7918939862336,0.053293856402664694
15.25833,4,834.9860918014872,0.053293856402664694
15.26667,4,827.1784771570568,0.053293856402664694
15.275,4,819.3877504338903,0.053293856402664694
15.28333,3,811.6045452938732,0.052553663952627686
15.29167,3,803.8195543145237,0.052553663952627686
15.3,2,796.0514918992126,0.05181347150259067
15.30833,2,788.2910870764848,0.05181347150259067
15.31667,0,780.5291284967238,0.050333086602516654
15.325,0,772.7843437016045,0.050333086602516654
15.33333,0,765.047557498983,0.050333086602516654
15.34167,0,757.3096558754381,0.050333086602516654
15.35,-1,749.589376918824,0.049592894152479645
15.35833,0,741.8776420455073,0.050333086602516654
15.36667,-1,734.1654363231387,0.049592894152479645
15.375,-2,726.4715039564286,0.04885270170244264
15.38333,-3,718.7868642304256,0.04811250925240563
15.39167,-3,711.1026034216967,0.04811250925240563
15.4,-5,703.437465634263,0.046632124352331605
15.40833,-6,695.7825696647392,0.0458919319022946
15.41667,-6,688.1291054524678,0.0458919319022946
15.425,-8,680.495808979318,0.04441154700222058
15.43333,-8,672.8739005216904,0.04441154700222058
15.44167,-8,665.2546764540609,0.04441154700222058
15.45,-9,657.6568547759698,0.043671354552183565
15.45833,-9,650.0717595037243,0.043671354552183565
15.46667,-10,642.490796502036,0.04293116210214656
15.475,-11,634.932654095995,0.04219096965210955
15.48333,-11,627.3887625648259,0.04219096965210955
15.49167,-11,619.8506405175974,0.04219096965210955
15.5,-11,612.3369331242237,0.04219096965210955
15.50833,-11,604.8391796376984,0.04219096965210955
15.51667,-11,597.3490148577765,0.04219096965210955
15.525,-10,589.8850255391686,0.04293116210214656
15.53333,-10,582.4388628101497,0.04293116210214656
15.54167,-9,575.0022811794769,0.043671354552183565
15.55,-9,567.5937920303296,0.043671354552183565
15.55833,-10,560.2051613829859,0.04293116210214656
15.56667,-9,552.8282670559258,0.043671354552183565
15.575,-9,545.4815264455412,0.043671354552183565
15.58333,-9,538.1568235425192,0.043671354552183565
15.59167,-9,530.8461630975008,0.043671354552183565
15.6,-8,523.567848340891,0.04441154700222058
15.60833,-8,516.3138843418309,0.04441154700222058
15.61667,-9,509.0764063845173,0.043671354552183565
15.625,-9,501.8735818645329,0.043671354552183565
15.63333,-10,494.69754004092334,0.04293116210214656
15.64167,-10,487.5405502352707,0.04293116210214656
15.65,-11,480.4206210134607,0.04219096965210955
15.65833,-11,473.3300088730011,0.04219096965210955
15.66667,-13,466.2611205589508,0.04071058475203553
15.675,-13,459.2317815893951,0.04071058475203553
15.68333,-14,452.234378667993,0.03997039230199852
15.69167,-13,445.26145918285164,0.04071058475203553
15.7,-13,438.3306403332179,0.04071058475203553
15.70833,-14,431.4344418667361,0.03997039230199852
15.71667,-16,424.5655548374572,0.0384900074019245
15.725,-16,417.74136196284553,0.0384900074019245
15.73333,-18,410.9545187330302,0.037009622501850484
15.74167,-18,404.1978626491179,0.037009622501850484
15.75,-20,397.4885150972445,0.03552923760177646
15.75833,-20,390.81926982086486,0.03552923760177646
15.76667,-21,384.18311329486414,0.03478904515173945
15.775,-22,377.59687823620453,0.034048852701702444
15.78333,-23,371.053498962349,0.033308660251665435
15.79167,-24,364.5461131546035,0.03256846780162842
15.8,-24,358.0912372697728,0.03256846780162842
15.80833,-26,351.68194830416684,0.031088082901554404
15.81667,-27,345.3115370785903,0.030347890451517395
15.825,-28,338.99617618151,0.029607698001480384
15.83333,-29,332.72908715766926,0.028867505551443375
15.84167,-29,326.5037155985773,0.028867505551443375
15.85,-31,320.33586283513984,0.027387120651369355
15.85833,-31,314.21889662072505,0.027387120651369355
15.86667,-32,308.1464186207726,0.026646928201332347
15.875,-31,302.1338320111675,0.027387120651369355
15.88333,-31,296.1746521780258,0.027387120651369355
15.89167,-31,290.26263786377797,0.027387120651369355
15.9,-31,284.41276794376626,0.027387120651369355
15.90833,-31,278.6187066448288,0.027387120651369355
15.91667,-30,272.8743704732023,0.028127313101406367
15.925,-29,267.1942888895033,0.028867505551443375
15.93333,-28,261.5722759577435,0.029607698001480384
15.94167,-28,256.0024063566384,0.029607698001480384
15.95,-26,250.49873630150927,0.031088082901554404
15.95833,-24,245.05523049991703,0.03256846780162842
15.96667,-22,239.66612193575938,0.034048852701702444
15.975,-18,234.3449713207862,0.037009622501850484
15.98333,-16,229.08589463003543,0.0384900074019245
15.99167,-12,223.88328305932876,0.04145077720207254
16.0,-9,218.75018135211175,0.043671354552183565
16.00833,-6,213.68085724153997,0.0458919319022946
16.01667,-1,208.66985981429073,0.049592894152479645
16.025,2,203.729699456493,0.05181347150259067
16.03333,6,198.85479601794714,0.05477424130273871
16.04167,11,194.0398559872949,0.05847520355292376
16.05,15,189.2968392836408,0.0614359733530718
16.05833,19,184.62031813904088,0.06439674315321983
16.06667,23,180.00515580553852,0.06735751295336788
16.075,26,175.46274812852943,0.0695780903034789
16.08333,30,170.98781991645924,0.07253886010362694
16.09167,33,166.57539044438212,0.07475943745373798
16.1,35,162.23628055009448,0.07623982235381199
16.10833,38,157.96536777808976,0.07846039970392302
16.11667,40,153.75782660685869,0.07994078460399703
16.125,42,149.62389477026548,0.08142116950407106
16.13333,42,145.5586026897017,0.08142116950407106
16.14167,44,141.55727919490187,0.08290155440414508
16.15,43,137.6295737733042,0.08216136195410807
16.15833,43,133.77066987060127,0.08216136195410807
16.16667,43,129.9760498046926,0.08216136195410807
16.175,41,126.25477272198148,0.08068097705403404
16.18333,39,122.60217526100377,0.07920059215396003
16.19167,36,119.01389238444041,0.076980014803849
16.2,33,115.49839389861629,0.07475943745373798
16.20833,30,112.05116983818084,0.07253886010362694
16.21667,27,108.66800701071129,0.07031828275351591
16.225,23,105.35678998233578,0.06735751295336788
16.23333,19,102.1131624295235,0.06439674315321983
16.24167,15,98.93306226414546,0.0614359733530718
16.25,11,95.8237959842296,0.05847520355292376
16.25833,8,92.7811611964835,0.056254626202812734
16.26667,5,89.80124623497045,0.0540340488527017
16.275,1,86.89078970820619,0.05107327905255366
16.28333,-3,84.04574347331337,0.04811250925240563
16.29167,-5,81.26234567049416,0.046632124352331605
16.3,-8,78.5467800841111,0.04441154700222058
16.30833,-11,75.89515315677858,0.04219096965210955
16.31667,-15,73.30385228282853,0.03923019985196151
16.325,-18,70.77852221781208,0.037009622501850484
16.33333,-20,68.31542432304688,0.03552923760177646
16.34167,-22,65.91109473460247,0.034048852701702444
16.35,-24,63.57065752272629,0.03256846780162842
16.35833,-26,61.29052926370923,0.031088082901554404
16.36667,-27,59.06739434656822,0.030347890451517395
16.375,-29,56.90587681347729,0.028867505551443375
16.38333,-30,54.80254868493038,0.028127313101406367
16.39167,-32,52.75424210273888,0.026646928201332347
16.4,-33,50.7651038049848,0.025906735751295335
16.40833,-35,48.831861371427934,0.02442635085122132
16.41667,-35,46.95149415286848,0.02442635085122132
16.425,-36,45.12769608459123,0.023686158401184307
16.43333,-36,43.35735026572745,0.023686158401184307
16.44167,-38,41.637582625625626,0.02220577350111029
16.45,-39,39.971660277527135,0.02146558105107328
16.45833,-40,38.356621592551896,0.02072538860103627
16.46667,-40,36.78973831856016,0.02072538860103627
16.475,-42,35.27387788450496,0.01924500370096225
16.48333,-43,33.80623343312428,0.018504811250925242
16.49167,-44,32.38422159356852,0.01776461880088823
16.5,-45,31.010338078114508,0.017024426350851222
16.50833,-47,29.681929997325746,0.015544041450777202
16.51667,-47,28.396557699286518,0.015544041450777202
16.525,-49,27.156373649055954,0.014063656550703183
16.53333,-49,25.95887777063399,0.014063656550703183
16.54167,-50,24.801772698537157,0.013323464100666173
16.55,-51,23.68689629194283,0.012583271650629163
16.55833,-52,22.61189974308782,0.011843079200592153
16.56667,-52,21.574626226294914,0.011843079200592153
16.575,-52,20.57662749321854,0.011843079200592153
16.58333,-53,19.615704028928256,0.011102886750555145
16.59167,-54,18.68983745112578,0.010362694300518135
16.6,-54,17.800321456103035,0.010362694300518135
16.60833,-54,16.94510338901911,0.010362694300518135
16.61667,-54,16.12230083160058,0.010362694300518135
16.625,-55,15.33297675175009,0.009622501850481125
16.63333,-55,14.575222442760332,0.009622501850481125
16.64167,-55,13.847288565625002,0.009622501850481125
16.65,-56,13.150033707313264,0.008882309400444115
16.65833,-56,12.481689707697349,0.008882309400444115
16.66667,-56,11.840637002634656,0.008882309400444115
16.675,-57,11.227554940795521,0.008142116950407105
16.68333,-58,10.640812017906244,0.007401924500370096
16.69167,-59,10.078914715968814,0.006661732050333087
16.7,-59,9.542386893688835,0.006661732050333087
16.70833,-59,9.029729332390735,0.006661732050333087
16.71667,-60,8.539570413289434,0.005921539600296077
16.725,-59,8.072300703472637,0.006661732050333087
16.73333,-59,7.6265484420336085,0.006661732050333087
16.74167,-59,7.2010593613319225,0.006661732050333087
16.75,-60,6.796111265793499,0.005921539600296077
16.75833,-60,6.410454599697034,0.005921539600296077
16.76667,-61,6.042947523197562,0.0051813471502590676
16.775,-60,5.6937738571901315,0.005921539600296077
16.78333,-60,5.361800615614865,0.005921539600296077
16.79167,-61,5.045993123906454,0.0051813471502590676
16.8,-62,4.746458203302983,0.0044411547002220575
16.80833,-62,4.462173469467469,0.0044411547002220575
16.81667,-62,4.192205857182865,0.0044411547002220575
16.825,-62,3.936600365509436,0.0044411547002220575
16.83333,-62,3.694438970460439,0.0044411547002220575
16.84167,-62,3.4648844177273825,0.0044411547002220575
16.85,-62,3.247933277589825,0.0044411547002220575
16.85833,-63,3.0427654353248976,0.003700962250185048
16.86667,-63,2.848633464806296,0.003700962250185048
16.875,-63,2.665497167114965,0.003700962250185048
16.88333,-63,2.4926277442279305,0.003700962250185048
16.89167,-63,2.329361492848977,0.003700962250185048
16.9,-62,2.175631446604886,0.0044411547002220575
16.90833,-62,2.0307934603566578,0.0044411547002220575
16.91667,-63,1.8942613892856437,0.003700962250185048
16.925,-62,1.7659499407648307,0.0044411547002220575
16.93333,-63,1.6452929575773183,0.003700962250185048
16.94167,-63,1.531775694549728,0.003700962250185048
16.95,-63,1.425301527233878,0.003700962250185048
16.95833,-63,1.3253756887548669,0.003700962250185048
16.96667,-62,1.2315487429157173,0.0044411547002220575
16.975,-62,1.1437184073178526,0.0044411547002220575
16.98333,-62,1.0614548404518613,0.0044411547002220575
16.99167,-62,0.9843679520246195,0.0044411547002220575
17.0,-61,0.9123542893982214,0.0051813471502590676
17.00833,-62,0.8450426637244827,0.0044411547002220575
17.01667,-61,0.7820965502260563,0.0051813471502590676
17.025,-61,0.7234147654950325,0.0051813471502590676
17.03333,-60,0.6686787465202568,0.005921539600296077
17.04167,-61,0.6175999852423095,0.0051813471502590676
17.05,-61,0.5700820968048204,0.0051813471502590676
17.05833,-61,0.5258534090132678,0.0051813471502590676
17.06667,-62,0.4846681554951016,0.0044411547002220575
17.075,-61,0.4464365036408881,0.0051813471502590676
17.08333,-62,0.41092826673759375,0.0044411547002220575
17.09167,-63,0.3779354531983703,0.003700962250185048
17.1,-63,0.34737588914409406,0.003700962250185048
17.10833,-64,0.31905582680803946,0.0029607698001480384
17.11667,-63,0.2928004171007524,0.003700962250185048
17.125,-64,0.2685357238188956,0.0029607698001480384
17.13333,-64,0.24609977087716695,0.0029607698001480384
17.14167,-64,0.2253465722949637,0.0029607698001480384
17.15,-63,0.20621059034385156,0.003700962250185048
17.15833,-63,0.1885573445044711,0.003700962250185048
17.16667,-63,0.17226579581807006,0.003700962250185048
17.175,-63,0.15727864548465706,0.003700962250185048
17.18333,-62,0.1434850273962574,0.0044411547002220575
17.19167,-62,0.13078529972451355,0.0044411547002220575
17.2,-62,0.11913000831542597,0.0044411547002220575
17.20833,-62,0.10842841169422407,0.0044411547002220575
17.21667,-61,0.0985990774936728,0.0051813471502590676
17.225,-60,0.08959984044873615,0.005921539600296077
17.23333,-60,0.08135697515605123,0.005921539600296077
17.24167,-59,0.07380442327213736,0.006661732050333087
17.25,-57,0.06690665233036229,0.008142116950407105
17.25833,-57,0.06060420993184024,0.008142116950407105
17.26667,-55,0.054843913432608644,0.009622501850481125
17.275,-53,0.049596156392606956,0.011102886750555145
17.28333,-51,0.04481336159938211,0.012583271650629163
17.29167,-50,0.04045304165800556,0.013323464100666173
17.3,-48,0.03649079773708101,0.014803849000740192
17.30833,-46,0.032888851543395846,0.01628423390081421
17.31667,-44,0.0296135260012828,0.01776461880088823
17.325,-43,0.026644929317953436,0.018504811250925242
17.33333,-41,0.02395330131566859,0.01998519615099926
17.34167,-39,0.021512161339857006,0.02146558105107328
17.35,-38,0.01930546306299819,0.02220577350111029
17.35833,-35,0.017309951588272487,0.02442635085122132
17.36667,-33,0.015504974118508201,0.025906735751295335
17.375,-33,0.013877721263210845,0.025906735751295335
17.38333,-31,0.012410170541276534,0.027387120651369355
17.39167,-30,0.011086347706842878,0.028127313101406367
17.4,-30,0.009896133011793559,0.028127313101406367
17.40833,-28,0.00882567577077858,0.029607698001480384
17.41667,-28,0.007862724509885975,0.029607698001480384
17.425,-27,0.006999366564481523,0.030347890451517395
17.43333,-26,0.006225047879501512,0.031088082901554404
17.44167,-26,0.005530452710040512,0.031088082901554404
17.45,-26,0.004909457561513284,0.031088082901554404
17.45833,-25,0.004354089956135875,0.03182827535159141
17.46667,-25,0.0038573281895048794,0.03182827535159141
17.475,-24,0.0034144819558860227,0.03256846780162842
17.48333,-23,0.0030195819031981854,0.033308660251665435
17.49167,-23,0.002667382406971473,0.033308660251665435
17.5,-22,0.002354327797224569,0.034048852701702444
17.50833,-23,0.0020759885754353478,0.033308660251665435
17.51667,-22,0.0018284813150014573,0.034048852701702444
17.525,-21,0.001609138259995215,0.03478904515173945
17.53333,-21,0.0014147024796702713,0.03478904515173945
17.54167,-21,0.0012423253882315557,0.03478904515173945
17.55,-20,0.0010900261217384863,0.03552923760177646
17.55833,-19,0.0009554320958676008,0.03626943005181347
17.56667,-19,0.0008364733010991318,0.03626943005181347
17.575,-18,0.0007316942078061203,0.037009622501850484
17.58333,-19,0.0006393827282940787,0.03626943005181347
17.59167,-19,0.0005580488970048289,0.03626943005181347
17.6,-20,0.0004866344004882892,0.03552923760177646
17.60833,-20,0.00042391560048443553,0.03552923760177646
17.61667,-21,0.0003688303798698559,0.03478904515173945
17.625,-21,0.0003206173628248668,0.03478904515173945
17.63333,-23,0.0002784105178388106,0.033308660251665435
17.64167,-24,0.0002414601376136971,0.03256846780162842
17.65,-25,0.00020922430105626416,0.03182827535159141
17.65833,-27,0.00018109613458133092,0.030347890451517395
17.66667,-29,0.0001565517187726291,0.028867505551443375
17.675,-30,0.00013520947644711813,0.028127313101406367
17.68333,-32,0.00011664841316532071,0.026646928201332347
17.69167,-33,0.00010050610212442025,0.025906735751295335
17.7,-36,8.651678182191379e-05,0.023686158401184307
17.70833,-38,7.439138618208765e-05,0.02220577350111029
17.71667,-41,6.388178012329968e-05,0.01998519615099926
17.725,-44,5.4804894092662204e-05,0.01776461880088823
17.73333,-45,4.6964306636237194e-05,0.017024426350851222
17.74167,-46,4.0191906636155334e-05,0.01628423390081421
17.75,-49,3.4362983630262515e-05,0.014063656550703183
17.75833,-50,2.9345475128485825e-05,0.013323464100666173
17.76667,-52,2.5026694401008242e-05,0.011843079200592153
17.775,-54,2.1322637779828597e-05,0.010362694300518135
17.78333,-55,1.8145464551547424e-05,0.009622501850481125
17.79167,-56,1.5420453457391876e-05,0.008882309400444115
17.8,-57,1.3091661494106164e-05,0.008142116950407105
17.80833,-58,1.1101297104585887e-05,0.007401924500370096
17.81667,-58,9.400355678494855e-06,0.007401924500370096
17.825,-59,7.95200847333703e-06,0.006661732050333087
17.83333,-59,6.718653504064716e-06,0.006661732050333087
17.84167,-59,5.668509107388933e-06,0.006661732050333087
17.85,-59,4.777611188720943e-06,0.006661732050333087
17.85833,-60,4.021768409275834e-06,0.005921539600296077
17.86667,-61,3.3806015240671688e-06,0.0051813471502590676
17.875,-62,2.838700424102945e-06,0.0044411547002220575
17.88333,-62,2.3806787454951723e-06,0.0044411547002220575
17.89167,-62,1.993618482822125e-06,0.0044411547002220575
17.9,-64,1.667727967950754e-06,0.0029607698001480384
17.90833,-64,1.393334170973977e-06,0.0029607698001480384
17.91667,-65,1.1623438575829071e-06,0.0022205773501110288
17.925,-66,9.686102430376236e-07,0.0014803849000740192
17.93333,-66,8.061234969684927e-07,0.0014803849000740192
17.94167,-67,6.698730086509302e-07,0.0007401924500370096
17.95,-67,5.560471361147406e-07,0.0007401924500370096
17.95833,-67,4.609564685812457e-07,0.0007401924500370096
17.96667,-67,3.8153605904810116e-07,0.0007401924500370096
17.975,-68,3.1545148286891796e-07,0.0
17.98333,-68,2.604652138930231e-07,0.0
17.99167,-68,2.1472525582365985e-07,0.0
